Data from Absorbance_048.txt Node
Date: Fri Nov 13 13:44:37 MSK 2020
User: vat
Spectrometer: MAYP114033
Trigger mode: 0
Integration Time (sec): 8,000000E-3
Scans to average: 10
Electric dark correction enabled: true
Nonlinearity correction enabled: false
Boxcar width: 3
XAxis mode: Wavelengths
Number of Pixels in Spectrum: 2068
>>>>>Begin Spectral Data<<<<<
199,4	-0
199,9	0,08
200,4	-0,009
200,8	0,069
201,3	0,066
201,8	0,091
202,2	0,074
202,7	0,082
203,2	0,094
203,6	0,097
204,1	0,091
204,6	0,084
205	0,076
205,5	0,084
206	0,071
206,4	0,071
206,9	0,098
207,4	0,098
207,8	0,111
208,3	0,109
208,8	0,113
209,2	0,11
209,7	0,126
210,2	0,115
210,6	0,106
211,1	0,124
211,5	0,14
212	0,149
212,5	0,169
212,9	0,162
213,4	0,165
213,9	0,185
214,3	0,164
214,8	0,164
215,3	0,164
215,7	0,138
216,2	0,158
216,7	0,156
217,1	0,156
217,6	0,154
218,1	0,148
218,5	0,162
219	0,17
219,5	0,136
219,9	0,128
220,4	0,112
220,9	0,1
221,3	0,11
221,8	0,091
222,3	0,095
222,7	0,111
223,2	0,131
223,6	0,149
224,1	0,17
224,6	0,164
225	0,184
225,5	0,179
226	0,18
226,4	0,157
226,9	0,132
227,4	0,13
227,8	0,129
228,3	0,126
228,8	0,142
229,2	0,152
229,7	0,156
230,2	0,18
230,6	0,174
231,1	0,177
231,5	0,175
232	0,173
232,5	0,169
232,9	0,182
233,4	0,191
233,9	0,213
234,3	0,214
234,8	0,22
235,3	0,225
235,7	0,206
236,2	0,205
236,7	0,203
237,1	0,191
237,6	0,194
238,1	0,19
238,5	0,183
239	0,203
239,4	0,208
239,9	0,204
240,4	0,211
240,8	0,227
241,3	0,246
241,8	0,256
242,2	0,261
242,7	0,249
243,2	0,255
243,6	0,263
244,1	0,267
244,6	0,272
245	0,29
245,5	0,298
245,9	0,323
246,4	0,331
246,9	0,342
247,3	0,347
247,8	0,352
248,3	0,36
248,7	0,368
249,2	0,378
249,7	0,39
250,1	0,4
250,6	0,402
251	0,402
251,5	0,407
252	0,413
252,4	0,422
252,9	0,43
253,4	0,439
253,8	0,451
254,3	0,462
254,8	0,473
255,2	0,482
255,7	0,495
256,1	0,507
256,6	0,519
257,1	0,532
257,5	0,547
258	0,562
258,5	0,577
258,9	0,591
259,4	0,609
259,9	0,626
260,3	0,643
260,8	0,659
261,2	0,676
261,7	0,695
262,2	0,715
262,6	0,731
263,1	0,751
263,6	0,768
264	0,789
264,5	0,81
264,9	0,829
265,4	0,849
265,9	0,87
266,3	0,891
266,8	0,914
267,3	0,933
267,7	0,952
268,2	0,973
268,7	0,994
269,1	1,013
269,6	1,033
270	1,052
270,5	1,074
271	1,097
271,4	1,116
271,9	1,135
272,4	1,156
272,8	1,175
273,3	1,193
273,7	1,21
274,2	1,226
274,7	1,244
275,1	1,263
275,6	1,277
276,1	1,294
276,5	1,307
277	1,32
277,4	1,334
277,9	1,346
278,4	1,353
278,8	1,361
279,3	1,367
279,8	1,376
280,2	1,384
280,7	1,387
281,1	1,392
281,6	1,397
282,1	1,402
282,5	1,402
283	1,4
283,4	1,399
283,9	1,398
284,4	1,392
284,8	1,39
285,3	1,381
285,8	1,377
286,2	1,369
286,7	1,359
287,1	1,348
287,6	1,338
288,1	1,323
288,5	1,309
289	1,293
289,5	1,276
289,9	1,259
290,4	1,239
290,8	1,217
291,3	1,197
291,8	1,176
292,2	1,152
292,7	1,128
293,1	1,104
293,6	1,079
294,1	1,054
294,5	1,027
295	1,001
295,5	0,975
295,9	0,948
296,4	0,919
296,8	0,89
297,3	0,862
297,8	0,834
298,2	0,805
298,7	0,777
299,1	0,748
299,6	0,721
300,1	0,694
300,5	0,667
301	0,641
301,5	0,614
301,9	0,589
302,4	0,565
302,8	0,541
303,3	0,518
303,8	0,496
304,2	0,473
304,7	0,452
305,1	0,432
305,6	0,412
306,1	0,393
306,5	0,375
307	0,358
307,4	0,341
307,9	0,325
308,4	0,31
308,8	0,295
309,3	0,282
309,8	0,269
310,2	0,257
310,7	0,245
311,1	0,234
311,6	0,224
312,1	0,214
312,5	0,205
313	0,196
313,4	0,188
313,9	0,18
314,4	0,172
314,8	0,165
315,3	0,158
315,7	0,152
316,2	0,146
316,7	0,141
317,1	0,136
317,6	0,131
318	0,127
318,5	0,123
319	0,12
319,4	0,116
319,9	0,112
320,3	0,109
320,8	0,106
321,3	0,103
321,7	0,101
322,2	0,098
322,6	0,096
323,1	0,095
323,6	0,093
324	0,091
324,5	0,089
324,9	0,088
325,4	0,087
325,9	0,085
326,3	0,084
326,8	0,083
327,2	0,082
327,7	0,081
328,2	0,079
328,6	0,078
329,1	0,077
329,5	0,076
330	0,075
330,5	0,074
330,9	0,073
331,4	0,072
331,8	0,071
332,3	0,07
332,8	0,07
333,2	0,069
333,7	0,068
334,1	0,068
334,6	0,067
335,1	0,066
335,5	0,066
336	0,065
336,4	0,065
336,9	0,064
337,4	0,063
337,8	0,063
338,3	0,062
338,7	0,062
339,2	0,061
339,7	0,06
340,1	0,06
340,6	0,059
341	0,059
341,5	0,059
342	0,058
342,4	0,058
342,9	0,057
343,3	0,057
343,8	0,057
344,2	0,056
344,7	0,056
345,2	0,055
345,6	0,054
346,1	0,054
346,5	0,054
347	0,053
347,5	0,053
347,9	0,053
348,4	0,052
348,8	0,052
349,3	0,052
349,8	0,051
350,2	0,05
350,7	0,05
351,1	0,05
351,6	0,049
352	0,049
352,5	0,048
353	0,048
353,4	0,048
353,9	0,048
354,3	0,047
354,8	0,046
355,3	0,046
355,7	0,046
356,2	0,046
356,6	0,045
357,1	0,045
357,5	0,045
358	0,045
358,5	0,044
358,9	0,044
359,4	0,044
359,8	0,044
360,3	0,043
360,8	0,043
361,2	0,043
361,7	0,042
362,1	0,041
362,6	0,041
363	0,041
363,5	0,04
364	0,04
364,4	0,039
364,9	0,039
365,3	0,039
365,8	0,039
366,3	0,039
366,7	0,039
367,2	0,038
367,6	0,038
368,1	0,037
368,5	0,037
369	0,036
369,5	0,036
369,9	0,036
370,4	0,036
370,8	0,035
371,3	0,035
371,7	0,035
372,2	0,035
372,7	0,034
373,1	0,034
373,6	0,034
374	0,034
374,5	0,034
374,9	0,033
375,4	0,033
375,9	0,033
376,3	0,032
376,8	0,032
377,2	0,031
377,7	0,031
378,2	0,031
378,6	0,031
379,1	0,03
379,5	0,03
380	0,03
380,4	0,03
380,9	0,03
381,4	0,03
381,8	0,029
382,3	0,029
382,7	0,029
383,2	0,029
383,6	0,029
384,1	0,029
384,6	0,029
385	0,028
385,5	0,028
385,9	0,028
386,4	0,027
386,8	0,027
387,3	0,027
387,7	0,027
388,2	0,026
388,7	0,026
389,1	0,026
389,6	0,026
390	0,026
390,5	0,026
390,9	0,025
391,4	0,025
391,9	0,025
392,3	0,025
392,8	0,024
393,2	0,025
393,7	0,024
394,1	0,024
394,6	0,024
395,1	0,024
395,5	0,023
396	0,023
396,4	0,023
396,9	0,023
397,3	0,022
397,8	0,022
398,2	0,022
398,7	0,022
399,2	0,022
399,6	0,022
400,1	0,022
400,5	0,022
401	0,022
401,4	0,021
401,9	0,022
402,4	0,022
402,8	0,022
403,3	0,022
403,7	0,021
404,2	0,021
404,6	0,021
405,1	0,021
405,5	0,021
406	0,02
406,5	0,02
406,9	0,02
407,4	0,019
407,8	0,019
408,3	0,019
408,7	0,019
409,2	0,019
409,6	0,019
410,1	0,019
410,6	0,019
411	0,019
411,5	0,019
411,9	0,019
412,4	0,018
412,8	0,018
413,3	0,018
413,7	0,018
414,2	0,018
414,7	0,017
415,1	0,017
415,6	0,017
416	0,017
416,5	0,016
416,9	0,016
417,4	0,016
417,8	0,016
418,3	0,016
418,8	0,017
419,2	0,017
419,7	0,017
420,1	0,017
420,6	0,017
421	0,016
421,5	0,016
421,9	0,016
422,4	0,016
422,8	0,016
423,3	0,016
423,8	0,016
424,2	0,016
424,7	0,016
425,1	0,015
425,6	0,015
426	0,015
426,5	0,014
426,9	0,014
427,4	0,014
427,9	0,014
428,3	0,014
428,8	0,015
429,2	0,014
429,7	0,014
430,1	0,014
430,6	0,014
431	0,014
431,5	0,013
431,9	0,014
432,4	0,014
432,8	0,013
433,3	0,014
433,8	0,014
434,2	0,014
434,7	0,014
435,1	0,013
435,6	0,013
436	0,014
436,5	0,013
436,9	0,013
437,4	0,014
437,8	0,014
438,3	0,014
438,8	0,014
439,2	0,014
439,7	0,014
440,1	0,013
440,6	0,012
441	0,012
441,5	0,012
441,9	0,011
442,4	0,011
442,8	0,012
443,3	0,012
443,7	0,012
444,2	0,012
444,7	0,011
445,1	0,012
445,6	0,012
446	0,011
446,5	0,012
446,9	0,012
447,4	0,012
447,8	0,012
448,3	0,012
448,7	0,012
449,2	0,012
449,6	0,011
450,1	0,011
450,6	0,011
451	0,011
451,5	0,011
451,9	0,011
452,4	0,01
452,8	0,01
453,3	0,01
453,7	0,01
454,2	0,01
454,6	0,01
455,1	0,01
455,5	0,01
456	0,01
456,4	0,009
456,9	0,01
457,3	0,01
457,8	0,01
458,3	0,01
458,7	0,009
459,2	0,01
459,6	0,01
460,1	0,01
460,5	0,01
461	0,01
461,4	0,01
461,9	0,01
462,3	0,01
462,8	0,009
463,2	0,009
463,7	0,009
464,1	0,008
464,6	0,009
465	0,008
465,5	0,009
466	0,008
466,4	0,009
466,9	0,009
467,3	0,008
467,8	0,008
468,2	0,008
468,7	0,008
469,1	0,008
469,6	0,008
470	0,008
470,5	0,008
470,9	0,008
471,4	0,008
471,8	0,008
472,3	0,008
472,7	0,008
473,2	0,008
473,6	0,008
474,1	0,008
474,5	0,008
475	0,008
475,4	0,008
475,9	0,008
476,4	0,008
476,8	0,008
477,3	0,008
477,7	0,008
478,2	0,008
478,6	0,008
479,1	0,008
479,5	0,008
480	0,008
480,4	0,008
480,9	0,007
481,3	0,007
481,8	0,007
482,2	0,007
482,7	0,008
483,1	0,008
483,6	0,008
484	0,009
484,5	0,008
484,9	0,007
485,4	0,007
485,8	0,007
486,3	0,007
486,7	0,006
487,2	0,005
487,6	0,005
488,1	0,006
488,5	0,007
489	0,007
489,4	0,006
489,9	0,007
490,4	0,006
490,8	0,006
491,3	0,007
491,7	0,006
492,2	0,007
492,6	0,007
493,1	0,007
493,5	0,007
494	0,006
494,4	0,007
494,9	0,007
495,3	0,007
495,8	0,007
496,2	0,007
496,7	0,007
497,1	0,006
497,6	0,006
498	0,006
498,5	0,006
498,9	0,006
499,4	0,006
499,8	0,005
500,3	0,005
500,7	0,005
501,2	0,005
501,6	0,004
502,1	0,005
502,5	0,004
503	0,005
503,4	0,005
503,9	0,005
504,3	0,005
504,8	0,005
505,2	0,005
505,7	0,005
506,1	0,005
506,6	0,006
507	0,006
507,5	0,005
507,9	0,006
508,4	0,006
508,8	0,006
509,3	0,007
509,7	0,006
510,2	0,007
510,6	0,007
511,1	0,007
511,5	0,006
512	0,006
512,4	0,006
512,9	0,005
513,3	0,005
513,8	0,005
514,2	0,006
514,7	0,006
515,1	0,005
515,6	0,005
516	0,005
516,5	0,005
516,9	0,005
517,4	0,005
517,8	0,004
518,3	0,005
518,7	0,004
519,2	0,004
519,6	0,004
520,1	0,005
520,5	0,005
521	0,005
521,4	0,005
521,9	0,005
522,3	0,005
522,8	0,005
523,2	0,005
523,7	0,005
524,1	0,005
524,6	0,004
525	0,004
525,5	0,004
525,9	0,004
526,4	0,004
526,8	0,004
527,3	0,004
527,7	0,004
528,2	0,004
528,6	0,004
529,1	0,004
529,5	0,004
530	0,004
530,4	0,004
530,9	0,005
531,3	0,004
531,8	0,004
532,2	0,005
532,6	0,005
533,1	0,004
533,5	0,005
534	0,004
534,4	0,005
534,9	0,005
535,3	0,005
535,8	0,005
536,2	0,005
536,7	0,005
537,1	0,005
537,6	0,004
538	0,004
538,5	0,004
538,9	0,004
539,4	0,003
539,8	0,003
540,3	0,003
540,7	0,003
541,2	0,003
541,6	0,003
542,1	0,003
542,5	0,002
543	0,003
543,4	0,003
543,9	0,003
544,3	0,002
544,8	0,003
545,2	0,003
545,7	0,004
546,1	0,004
546,5	0,004
547	0,004
547,4	0,004
547,9	0,004
548,3	0,003
548,8	0,003
549,2	0,003
549,7	0,003
550,1	0,003
550,6	0,003
551	0,003
551,5	0,003
551,9	0,003
552,4	0,003
552,8	0,003
553,3	0,003
553,7	0,003
554,2	0,003
554,6	0,003
555,1	0,003
555,5	0,003
555,9	0,003
556,4	0,003
556,8	0,003
557,3	0,003
557,7	0,003
558,2	0,004
558,6	0,004
559,1	0,004
559,5	0,004
560	0,004
560,4	0,004
560,9	0,004
561,3	0,004
561,8	0,003
562,2	0,003
562,7	0,003
563,1	0,003
563,6	0,003
564	0,003
564,4	0,003
564,9	0,003
565,3	0,004
565,8	0,003
566,2	0,003
566,7	0,003
567,1	0,003
567,6	0,003
568	0,003
568,5	0,003
568,9	0,003
569,4	0,003
569,8	0,003
570,3	0,003
570,7	0,003
571,1	0,003
571,6	0,003
572	0,003
572,5	0,003
572,9	0,003
573,4	0,003
573,8	0,003
574,3	0,003
574,7	0,003
575,2	0,003
575,6	0,003
576,1	0,003
576,5	0,003
576,9	0,003
577,4	0,003
577,8	0,002
578,3	0,002
578,7	0,002
579,2	0,003
579,6	0,003
580,1	0,003
580,5	0,003
581	0,002
581,4	0,002
581,9	0,002
582,3	0,002
582,7	0,002
583,2	0,002
583,6	0,002
584,1	0,003
584,5	0,003
585	0,003
585,4	0,003
585,9	0,003
586,3	0,003
586,8	0,003
587,2	0,003
587,6	0,003
588,1	0,003
588,5	0,002
589	0,002
589,4	0,002
589,9	0,003
590,3	0,002
590,8	0,003
591,2	0,003
591,7	0,003
592,1	0,003
592,5	0,002
593	0,002
593,4	0,002
593,9	0,002
594,3	0,002
594,8	0,002
595,2	0,002
595,7	0,002
596,1	0,002
596,6	0,002
597	0,003
597,4	0,003
597,9	0,003
598,3	0,003
598,8	0,003
599,2	0,003
599,7	0,003
600,1	0,002
600,6	0,002
601	0,002
601,4	0,002
601,9	0,002
602,3	0,002
602,8	0,002
603,2	0,002
603,7	0,002
604,1	0,002
604,6	0,002
605	0,002
605,4	0,002
605,9	0,002
606,3	0,002
606,8	0,002
607,2	0,002
607,7	0,002
608,1	0,002
608,6	0,003
609	0,003
609,4	0,003
609,9	0,003
610,3	0,002
610,8	0,002
611,2	0,002
611,7	0,002
612,1	0,002
612,6	0,001
613	0,001
613,4	0,001
613,9	0,001
614,3	0,001
614,8	0,001
615,2	0,001
615,7	0,001
616,1	0,001
616,6	0,001
617	0,002
617,4	0,002
617,9	0,002
618,3	0,002
618,8	0,002
619,2	0,002
619,7	0,002
620,1	0,002
620,5	0,002
621	0,002
621,4	0,002
621,9	0,002
622,3	0,002
622,8	0,002
623,2	0,002
623,6	0,002
624,1	0,001
624,5	0,001
625	0,001
625,4	0,001
625,9	0,001
626,3	0,001
626,8	0,001
627,2	0,001
627,6	0,002
628,1	0,002
628,5	0,002
629	0,002
629,4	0,002
629,9	0,002
630,3	0,002
630,7	0,001
631,2	0,001
631,6	0,001
632,1	0,001
632,5	0,001
633	0,001
633,4	0,001
633,8	0,001
634,3	0,002
634,7	0,002
635,2	0,002
635,6	0,002
636,1	0,002
636,5	0,002
636,9	0,002
637,4	0,002
637,8	0,002
638,3	0,002
638,7	0,002
639,2	0,002
639,6	0,002
640	0,001
640,5	0,001
640,9	0,001
641,4	0,001
641,8	0,001
642,2	0,001
642,7	0,002
643,1	0,002
643,6	0,002
644	0,002
644,5	0,001
644,9	0,001
645,3	0,001
645,8	0,002
646,2	0,002
646,7	0,002
647,1	0,002
647,6	0,002
648	0,003
648,4	0,002
648,9	0,002
649,3	0,002
649,8	0,002
650,2	0,002
650,6	0,001
651,1	0,001
651,5	0,001
652	0,002
652,4	0,002
652,9	0,002
653,3	0,004
653,7	0,008
654,2	0,005
654,6	0,004
655,1	0,003
655,5	0,002
655,9	0,002
656,4	0,002
656,8	-0,001
657,3	-0,001
657,7	-0,001
658,2	-0,001
658,6	0,002
659	0,002
659,5	0,001
659,9	0,002
660,4	0,002
660,8	0,002
661,2	0,002
661,7	0,002
662,1	0,002
662,6	0,002
663	0,001
663,4	0,001
663,9	0,001
664,3	0,001
664,8	0,001
665,2	0,001
665,6	0,002
666,1	0,002
666,5	0,002
667	0,002
667,4	0,002
667,9	0,002
668,3	0,001
668,7	0,002
669,2	0,002
669,6	0,002
670,1	0,002
670,5	0,002
670,9	0,002
671,4	0,002
671,8	0,001
672,3	0,001
672,7	0,001
673,1	0,001
673,6	0
674	0,001
674,5	0,001
674,9	0,001
675,3	0,001
675,8	0,001
676,2	0,001
676,7	0,002
677,1	0,002
677,5	0,002
678	0,002
678,4	0,002
678,9	0,002
679,3	0,002
679,7	0,002
680,2	0,002
680,6	0,002
681,1	0,002
681,5	0,002
681,9	0,002
682,4	0,002
682,8	0,002
683,3	0,002
683,7	0,002
684,1	0,002
684,6	0,001
685	0,001
685,5	0,001
685,9	0,001
686,3	0,001
686,8	0,001
687,2	0,001
687,7	0,001
688,1	0,001
688,5	0,001
689	0,002
689,4	0,002
689,9	0,002
690,3	0,002
690,7	0,002
691,2	0,002
691,6	0,002
692	0,002
692,5	0,002
692,9	0,001
693,4	0,001
693,8	0,001
694,2	0,001
694,7	0,001
695,1	0,001
695,6	0,001
696	0,002
696,4	0,001
696,9	0,001
697,3	0,001
697,8	0,002
698,2	0,001
698,6	0,001
699,1	0,001
699,5	0,001
699,9	0,001
700,4	0,001
700,8	0,001
701,3	0,001
701,7	0,001
702,1	0,001
702,6	0,001
703	0,001
703,5	0,001
703,9	0,001
704,3	0,001
704,8	0,001
705,2	0,001
705,6	0,001
706,1	0,002
706,5	0,002
707	0,002
707,4	0,002
707,8	0,002
708,3	0,002
708,7	0,002
709,2	0,001
709,6	0,001
710	0,001
710,5	0,001
710,9	0,001
711,3	0,001
711,8	0,001
712,2	0,001
712,7	0,001
713,1	0,001
713,5	0,001
714	0,001
714,4	0,001
714,8	0,002
715,3	0,002
715,7	0,001
716,2	0,002
716,6	0,002
717	0,002
717,5	0,002
717,9	0,002
718,3	0,001
718,8	0,002
719,2	0,001
719,7	0,001
720,1	0,001
720,5	0,001
721	0,001
721,4	0,002
721,8	0,001
722,3	0,002
722,7	0,002
723,2	0,002
723,6	0,002
724	0,002
724,5	0,002
724,9	0,002
725,3	0,002
725,8	0,002
726,2	0,002
726,7	0,002
727,1	0,001
727,5	0,001
728	0,001
728,4	0,001
728,8	0,001
729,3	0,001
729,7	0,001
730,1	0,001
730,6	0,001
731	0,001
731,5	0,001
731,9	0,002
732,3	0,002
732,8	0,002
733,2	0,002
733,6	0,001
734,1	0,001
734,5	0,001
734,9	0,001
735,4	0,001
735,8	0,001
736,3	0,001
736,7	0,001
737,1	0,001
737,6	0,002
738	0,001
738,4	0,001
738,9	0,002
739,3	0,001
739,7	0,001
740,2	0,001
740,6	0,001
741,1	0,001
741,5	0,001
741,9	0,001
742,4	0,001
742,8	0,001
743,2	0,001
743,7	0,001
744,1	0,001
744,5	0,001
745	0,001
745,4	0,001
745,8	0,001
746,3	0,001
746,7	0,001
747,2	0,001
747,6	0,001
748	0,002
748,5	0,002
748,9	0,002
749,3	0,002
749,8	0,002
750,2	0,002
750,6	0,002
751,1	0,002
751,5	0,002
751,9	0,002
752,4	0,002
752,8	0,002
753,3	0,002
753,7	0,001
754,1	0,001
754,6	0,001
755	0,001
755,4	0,001
755,9	0,001
756,3	0,001
756,7	0,001
757,2	0,001
757,6	0,001
758	0,001
758,5	0,001
758,9	0,001
759,3	0,001
759,8	0,001
760,2	0,001
760,6	0,001
761,1	0,001
761,5	0,001
761,9	0,001
762,4	0,001
762,8	0,001
763,3	0,001
763,7	0,001
764,1	0,001
764,6	0,001
765	0,001
765,4	0,001
765,9	0,001
766,3	0,001
766,7	0,001
767,2	0,001
767,6	0,002
768	0,002
768,5	0,002
768,9	0,002
769,3	0,002
769,8	0,002
770,2	0,002
770,6	0,001
771,1	0,001
771,5	0,001
771,9	0,001
772,4	0,001
772,8	0,001
773,2	0,001
773,7	0,001
774,1	0,002
774,5	0,002
775	0,001
775,4	0,002
775,8	0,002
776,3	0,001
776,7	0,001
777,1	0,001
777,6	0,001
778	0,001
778,4	0,001
778,9	0,001
779,3	0,001
779,7	0,001
780,2	0,001
780,6	0,001
781	0
781,5	0
781,9	0
782,3	0
782,8	0
783,2	0,001
783,6	0,001
784,1	0,001
784,5	0,001
784,9	0,001
785,4	0,001
785,8	0,001
786,2	0,001
786,7	0,001
787,1	0,001
787,5	0,001
788	0,001
788,4	0,001
788,8	0,001
789,3	0,001
789,7	0,001
790,1	0,001
790,6	0,001
791	0,001
791,4	0,001
791,9	0,002
792,3	0,002
792,7	0,002
793,2	0,001
793,6	0,002
794	0,001
794,5	0,002
794,9	0,001
795,3	0,001
795,8	0,001
796,2	0,001
796,6	0,001
797,1	0,001
797,5	0,001
797,9	0,001
798,4	0,002
798,8	0,001
799,2	0,001
799,7	0,002
800,1	0,001
800,5	0,001
801	0,001
801,4	0,001
801,8	0,002
802,2	0,002
802,7	0,001
803,1	0,001
803,5	0,002
804	0,001
804,4	0,001
804,8	0,001
805,3	0,001
805,7	0,001
806,1	0,001
806,6	0,001
807	0,001
807,4	0,001
807,9	0,001
808,3	0,001
808,7	0,001
809,2	0,001
809,6	0,001
810	0,002
810,4	0,001
810,9	0,001
811,3	0,001
811,7	0,002
812,2	0,002
812,6	0,002
813	0,001
813,5	0,002
813,9	0,001
814,3	0,001
814,8	0,001
815,2	0,001
815,6	0,001
816,1	0,001
816,5	0,001
816,9	0,001
817,3	0,001
817,8	0,001
818,2	0,001
818,6	0,001
819,1	0,001
819,5	0,001
819,9	0,001
820,4	0,001
820,8	0,001
821,2	0,001
821,7	0,001
822,1	0,001
822,5	0,001
822,9	0,001
823,4	0,001
823,8	0,001
824,2	0,001
824,7	0,001
825,1	0,001
825,5	0,001
826	0,001
826,4	0
826,8	0
827,3	0
827,7	0,001
828,1	0
828,5	0
829	0
829,4	0,001
829,8	0,001
830,3	0,001
830,7	0,001
831,1	0,001
831,6	0,001
832	0,001
832,4	0,001
832,8	0,001
833,3	0,001
833,7	0,001
834,1	0,001
834,6	0,001
835	0,001
835,4	0,001
835,8	0,001
836,3	0,001
836,7	0,001
837,1	0,001
837,6	0,001
838	0,001
838,4	0,001
838,9	0,001
839,3	0,001
839,7	0,001
840,1	0,002
840,6	0,002
841	0,002
841,4	0,002
841,9	0,002
842,3	0,002
842,7	0,003
843,1	0,002
843,6	0,002
844	0,002
844,4	0,002
844,9	0,002
845,3	0,002
845,7	0,001
846,2	0,001
846,6	0,001
847	0,001
847,4	0,001
847,9	0,001
848,3	0,001
848,7	0,001
849,2	0,001
849,6	0,001
850	0,001
850,4	0,001
850,9	0,001
851,3	0,001
851,7	0,001
852,2	0,001
852,6	0,001
853	0
853,4	0
853,9	0,001
854,3	0
854,7	0,001
855,2	0,001
855,6	0,001
856	0,001
856,4	0,001
856,9	0,001
857,3	0,001
857,7	0,001
858,2	0,001
858,6	0,001
859	0,001
859,4	0,001
859,9	0,001
860,3	0,001
860,7	0,001
861,1	0,001
861,6	0,001
862	0,001
862,4	0,002
862,9	0,002
863,3	0,002
863,7	0,002
864,1	0,002
864,6	0,002
865	0,001
865,4	0,001
865,9	0,002
866,3	0,002
866,7	0,002
867,1	0,002
867,6	0,002
868	0,002
868,4	0,002
868,8	0,001
869,3	0,001
869,7	0,001
870,1	0,001
870,6	0,001
871	0,001
871,4	0,001
871,8	0,001
872,3	0,002
872,7	0,002
873,1	0,002
873,5	0,002
874	0,001
874,4	0,001
874,8	0,001
875,3	0,001
875,7	0,001
876,1	0,001
876,5	0,001
877	0,001
877,4	0,002
877,8	0,002
878,2	0,002
878,7	0,002
879,1	0,001
879,5	0,001
879,9	0,002
880,4	0,002
880,8	0,001
881,2	0,001
881,7	0,001
882,1	0,001
882,5	0,001
882,9	0,001
883,4	0,001
883,8	0,001
884,2	0,001
884,6	0,002
885,1	0,001
885,5	0,001
885,9	0,002
886,3	0,001
886,8	0,001
887,2	0,002
887,6	0,002
888	0,002
888,5	0,002
888,9	0,001
889,3	0,001
889,8	0,001
890,2	0,001
890,6	0,001
891	0,001
891,5	0,001
891,9	0,001
892,3	0,001
892,7	0,001
893,2	0,001
893,6	0,001
894	0,001
894,4	0,002
894,9	0,001
895,3	0,002
895,7	0,002
896,1	0,002
896,6	0,002
897	0,002
897,4	0,002
897,8	0,002
898,3	0,001
898,7	0,002
899,1	0,002
899,5	0,002
900	0,002
900,4	0,002
900,8	0,002
901,2	0,002
901,7	0,002
902,1	0,002
902,5	0,002
902,9	0,002
903,4	0,002
903,8	0,002
904,2	0,001
904,6	0,001
905,1	0,001
905,5	0,001
905,9	0,001
906,3	0,001
906,8	0,001
907,2	0,001
907,6	0,001
908	0,001
908,5	0,001
908,9	0,001
909,3	0,001
909,7	0,001
910,2	0,001
910,6	0,001
911	0,001
911,4	0,001
911,9	0,001
912,3	0,001
912,7	0,001
913,1	0,001
913,6	0,001
914	0,001
914,4	0,001
914,8	0,001
915,3	0,001
915,7	0,001
916,1	0,001
916,5	0,002
916,9	0,001
917,4	0,001
917,8	0,001
918,2	0,001
918,6	0,001
919,1	0,001
919,5	0,001
919,9	0,001
920,3	0,001
920,8	0,001
921,2	0,001
921,6	0,001
922	0,001
922,5	0,001
922,9	0,001
923,3	0,001
923,7	0,001
924,2	0,001
924,6	0,001
925	0,001
925,4	0,001
925,8	0,001
926,3	0,001
926,7	0,001
927,1	0
927,5	0
928	0
928,4	0
928,8	0
929,2	0,001
929,7	0,001
930,1	0,001
930,5	0,001
930,9	0,001
931,3	0,001
931,8	0,001
932,2	0,001
932,6	0,001
933	0,001
933,5	0,001
933,9	0
934,3	0,001
934,7	0,001
935,2	0,001
935,6	0,001
936	0,001
936,4	0,001
936,8	0,001
937,3	0,001
937,7	0,001
938,1	0,001
938,5	0,001
939	0,001
939,4	0,001
939,8	0,001
940,2	0,001
940,6	0,001
941,1	0,001
941,5	0,001
941,9	0,001
942,3	0,001
942,8	0,001
943,2	0,001
943,6	0,001
944	0,001
944,4	0,001
944,9	0,001
945,3	0,001
945,7	0,002
946,1	0,002
946,6	0,003
947	0,003
947,4	0,003
947,8	0,003
948,2	0,004
948,7	0,003
949,1	0,003
949,5	0,002
949,9	0,002
950,3	0,001
950,8	0,001
951,2	0,001
951,6	0,001
952	0,001
952,5	0,002
952,9	0,002
953,3	0,002
953,7	0,002
954,1	0,002
954,6	0,002
955	0,002
955,4	0,002
955,8	0,001
956,2	0,001
956,7	0
957,1	0
957,5	0
957,9	0
958,3	-0
958,8	0
959,2	0
959,6	0
960	0
960,5	0,001
960,9	0,001
961,3	0,001
961,7	0,001
962,1	0,001
962,6	0,002
963	0,002
963,4	0,001
963,8	0,002
964,2	0,002
964,7	0,002
965,1	0,002
965,5	0,001
965,9	0,002
966,3	0,002
966,8	0,002
967,2	0,002
967,6	0,002
968	0,002
968,4	0,002
968,9	0,003
969,3	0,002
969,7	0,002
970,1	0,002
970,5	0,003
971	0,002
971,4	0,002
971,8	0,001
972,2	0,001
972,6	0,002
973,1	0,001
973,5	0,001
973,9	0,002
974,3	0,001
974,7	0,001
975,2	0,001
975,6	0,001
976	0,001
976,4	0,001
976,8	0,002
977,3	0,002
977,7	0,002
978,1	0,003
978,5	0,001
978,9	0,002
979,4	0,001
979,8	0,001
980,2	0
980,6	0
981	0
981,5	0,001
981,9	0
982,3	0
982,7	0,001
983,1	0,001
983,6	0,001
984	0,001
984,4	0,001
984,8	0,002
985,2	0,002
985,6	0,002
986,1	0,002
986,5	0,002
986,9	0,002
987,3	0,002
987,7	0,002
988,2	0,002
988,6	0,002
989	0,003
989,4	0,002
989,8	0,003
990,3	0,003
990,7	0,002
991,1	0,002
991,5	0,002
991,9	0,001
992,3	0,001
992,8	0
993,2	0
993,6	0,001
994	0,001
994,4	0,001
994,9	0,002
995,3	0,002
995,7	0,002
996,1	0,002
996,5	0,002
996,9	0,002
997,4	0,002
997,8	0,002
998,2	0,001
998,6	0,002
999	0,003
999,5	0,003
999,9	0,003
1000,3	0,002
1000,7	0,003
1001,1	0,003
1001,5	0,003
1002	0,003
1002,4	0,003
1002,8	0,003
1003,2	0,003
1003,6	0,003
1004	0,003
1004,5	0,003
1004,9	0,002
1005,3	0,002
1005,7	0,002
1006,1	0,003
1006,6	0,003
1007	0,003
1007,4	0,004
1007,8	0,004
1008,2	0,004
1008,6	0,004
1009,1	0,004
1009,5	0,003
1009,9	0,003
1010,3	0,002
1010,7	0,002
1011,1	0,002
1011,6	0,002
1012	0,002
1012,4	0,002
1012,8	0,002
1013,2	0,003
1013,6	0,003
1014,1	0,003
1014,5	0,002
1014,9	0,002
1015,3	0,002
1015,7	0,002
1016,1	0,002
1016,6	0,002
1017	0,002
1017,4	0,002
1017,8	0,002
1018,2	0,003
1018,6	0,003
1019,1	0,003
1019,5	0,003
1019,9	0,003
1020,3	0,003
1020,7	0,003
1021,1	0,002
1021,6	0,003
1022	0,003
1022,4	0,002
1022,8	0,003
1023,2	0,003
1023,6	0,003
1024,1	0,003
1024,5	0,003
1024,9	0,003
1025,3	0,003
1025,7	0,002
1026,1	0,002
1026,6	0,002
1027	0,001
1027,4	0,001
1027,8	0,002
1028,2	0,002
1028,6	0,002
1029	0,002
1029,5	0,003
1029,9	0,003
1030,3	0,003
1030,7	0,003
1031,1	0,003
1031,5	0,003
1032	0,003
1032,4	0,003
1032,8	0,004
1033,2	0,004
1033,6	0,003
1034	0,004
1034,4	0,004
1034,9	0,004
1035,3	0,003
1035,7	0,003
1036,1	0,003
1036,5	0,003
1036,9	0,003
1037,4	0,002
1037,8	0,003
1038,2	0,004
1038,6	0,004
1039	0,004
1039,4	0,005
1039,8	0,005
1040,3	0,004
1040,7	0,003
1041,1	0,003
1041,5	0,003
1041,9	0,003
1042,3	0,003
1042,7	0,004
1043,2	0,004
1043,6	0,004
1044	0,005
1044,4	0,004
1044,8	0,003
1045,2	0,002
1045,6	0,002
1046,1	0,002
1046,5	0,002
1046,9	0,002
1047,3	0,002
1047,7	0,002
1048,1	0,003
1048,5	0,004
1049	0,004
1049,4	0,003
1049,8	0,004
1050,2	0,003
1050,6	0,003
1051	0,003
1051,4	0,003
1051,9	0,003
1052,3	0,003
1052,7	0,004
1053,1	0,004
1053,5	0,005
1053,9	0,005
1054,3	0,005
1054,8	0,005
1055,2	0,004
1055,6	0,004
1056	0,005
1056,4	0,005
1056,8	0,005
1057,2	0,006
1057,6	0,005
1058,1	0,005
1058,5	0,005
1058,9	0,006
1059,3	0,005
1059,7	0,005
1060,1	0,005
1060,5	0,005
1061	0,005
1061,4	0,005
1061,8	0,006
1062,2	0,006
1062,6	0,006
1063	0,005
1063,4	0,006
1063,8	0,006
1064,3	0,006
1064,7	0,005
1065,1	0,005
1065,5	0,005
1065,9	0,005
1066,3	0,005
1066,7	0,005
1067,1	0,004
1067,6	0,004
1068	0,004
1068,4	0,004
1068,8	0,005
1069,2	0,005
1069,6	0,004
1070	0,005
1070,4	0,006
1070,9	0,006
1071,3	0,004
1071,7	0,004
1072,1	0,003
1072,5	0,004
1072,9	0,004
1073,3	0,004
1073,7	0,003
1074,2	0,005
1074,6	0,005
1075	0,006
1075,4	0,007
1075,8	0,008
1076,2	0,008
1076,6	0,008
1077	0,008
1077,5	0,008
1077,9	0,007
1078,3	0,006
1078,7	0,004
1079,1	0,004
1079,5	0,004
1079,9	0,003
1080,3	0,005
1080,7	0,006
1081,2	0,007
1081,6	0,008
1082	0,008
1082,4	0,01
1082,8	0,011
1083,2	0,009
1083,6	0,008
1084	0,01
1084,5	0,011
1084,9	0,01
1085,3	0,009
1085,7	0,007
1086,1	0,008
1086,5	0,009
1086,9	0,008
1087,3	0,009
1087,7	0,012
1088,2	0,014
1088,6	0,014
1089	0,014
1089,4	0,011
1089,8	0,011
1090,2	0,009
1090,6	0,007
1091	0,006
1091,4	0,008
1091,9	0,01
1092,3	0,01
1092,7	0,012
1093,1	0,013
1093,5	0,015
1093,9	0,016
1094,3	0,014
1094,7	0,016
1095,1	0,02
1095,5	0,024
1096	0,03
1096,4	0,029
1096,8	0,027
1097,2	0,029
1097,6	0,031
1098	0,032
1098,4	0,022
1098,8	0,019
1099,2	0,02
1099,6	0,026
1100,1	0,02
1100,5	0,021
1100,9	0,022
1101,3	0,032
1101,7	0,036
1102,1	0,03
1102,5	0,03
1102,9	0,039
1103,3	0,037
1103,7	0,033
1104,2	0,029
1104,6	0,027
1105	0,034
1105,4	0,035
1105,8	0,032
1106,2	0,035
1106,6	0,037
1107	0,051
1107,4	0,055
1107,8	0,057
1108,3	-0,196
