Data from Absorbance_092.txt Node
Date: Fri Nov 13 14:51:46 MSK 2020
User: vat
Spectrometer: MAYP114033
Trigger mode: 0
Integration Time (sec): 8,000000E-3
Scans to average: 10
Electric dark correction enabled: true
Nonlinearity correction enabled: false
Boxcar width: 3
XAxis mode: Wavelengths
Number of Pixels in Spectrum: 2068
>>>>>Begin Spectral Data<<<<<
199,4	-0
199,9	-0
200,4	0,352
200,8	0,195
201,3	0,065
201,8	0,109
202,2	0,106
202,7	0,107
203,2	0,114
203,6	0,119
204,1	0,123
204,6	0,14
205	0,141
205,5	0,139
206	0,125
206,4	0,125
206,9	0,148
207,4	0,152
207,8	0,143
208,3	0,125
208,8	0,127
209,2	0,126
209,7	0,145
210,2	0,125
210,6	0,117
211,1	0,134
211,5	0,161
212	0,201
212,5	0,216
212,9	0,207
213,4	0,221
213,9	0,222
214,3	0,204
214,8	0,202
215,3	0,18
215,7	0,166
216,2	0,17
216,7	0,18
217,1	0,201
217,6	0,195
218,1	0,199
218,5	0,202
219	0,235
219,5	0,214
219,9	0,199
220,4	0,18
220,9	0,182
221,3	0,178
221,8	0,188
222,3	0,17
222,7	0,187
223,2	0,21
223,6	0,228
224,1	0,228
224,6	0,228
225	0,225
225,5	0,233
226	0,231
226,4	0,224
226,9	0,194
227,4	0,203
227,8	0,203
228,3	0,188
228,8	0,177
229,2	0,182
229,7	0,17
230,2	0,201
230,6	0,194
231,1	0,208
231,5	0,21
232	0,211
232,5	0,202
232,9	0,214
233,4	0,204
233,9	0,216
234,3	0,209
234,8	0,217
235,3	0,218
235,7	0,212
236,2	0,212
236,7	0,215
237,1	0,216
237,6	0,218
238,1	0,21
238,5	0,224
239	0,219
239,4	0,222
239,9	0,214
240,4	0,223
240,8	0,228
241,3	0,263
241,8	0,264
242,2	0,278
242,7	0,278
243,2	0,291
243,6	0,299
244,1	0,301
244,6	0,286
245	0,306
245,5	0,329
245,9	0,332
246,4	0,341
246,9	0,34
247,3	0,337
247,8	0,34
248,3	0,33
248,7	0,321
249,2	0,327
249,7	0,33
250,1	0,337
250,6	0,339
251	0,345
251,5	0,348
252	0,349
252,4	0,35
252,9	0,349
253,4	0,347
253,8	0,353
254,3	0,354
254,8	0,357
255,2	0,362
255,7	0,371
256,1	0,378
256,6	0,388
257,1	0,395
257,5	0,405
258	0,417
258,5	0,429
258,9	0,439
259,4	0,451
259,9	0,463
260,3	0,476
260,8	0,489
261,2	0,502
261,7	0,515
262,2	0,529
262,6	0,543
263,1	0,557
263,6	0,57
264	0,585
264,5	0,599
264,9	0,614
265,4	0,63
265,9	0,645
266,3	0,661
266,8	0,676
267,3	0,692
267,7	0,709
268,2	0,725
268,7	0,739
269,1	0,755
269,6	0,77
270	0,786
270,5	0,802
271	0,815
271,4	0,831
271,9	0,846
272,4	0,86
272,8	0,875
273,3	0,89
273,7	0,904
274,2	0,918
274,7	0,93
275,1	0,944
275,6	0,956
276,1	0,967
276,5	0,978
277	0,987
277,4	0,997
277,9	1,007
278,4	1,015
278,8	1,022
279,3	1,029
279,8	1,034
280,2	1,039
280,7	1,044
281,1	1,048
281,6	1,051
282,1	1,054
282,5	1,055
283	1,054
283,4	1,055
283,9	1,053
284,4	1,05
284,8	1,044
285,3	1,039
285,8	1,034
286,2	1,028
286,7	1,019
287,1	1,011
287,6	1,002
288,1	0,992
288,5	0,982
289	0,97
289,5	0,957
289,9	0,945
290,4	0,929
290,8	0,914
291,3	0,897
291,8	0,881
292,2	0,863
292,7	0,846
293,1	0,826
293,6	0,808
294,1	0,789
294,5	0,77
295	0,749
295,5	0,729
295,9	0,708
296,4	0,687
296,8	0,665
297,3	0,643
297,8	0,622
298,2	0,6
298,7	0,578
299,1	0,557
299,6	0,536
300,1	0,515
300,5	0,495
301	0,475
301,5	0,456
301,9	0,437
302,4	0,419
302,8	0,401
303,3	0,383
303,8	0,366
304,2	0,349
304,7	0,333
305,1	0,318
305,6	0,303
306,1	0,289
306,5	0,276
307	0,263
307,4	0,251
307,9	0,238
308,4	0,227
308,8	0,216
309,3	0,206
309,8	0,196
310,2	0,187
310,7	0,178
311,1	0,169
311,6	0,162
312,1	0,154
312,5	0,147
313	0,141
313,4	0,134
313,9	0,128
314,4	0,123
314,8	0,118
315,3	0,112
315,7	0,108
316,2	0,103
316,7	0,099
317,1	0,096
317,6	0,093
318	0,09
318,5	0,087
319	0,084
319,4	0,082
319,9	0,079
320,3	0,077
320,8	0,074
321,3	0,073
321,7	0,07
322,2	0,069
322,6	0,067
323,1	0,066
323,6	0,065
324	0,063
324,5	0,062
324,9	0,062
325,4	0,06
325,9	0,059
326,3	0,059
326,8	0,058
327,2	0,056
327,7	0,056
328,2	0,055
328,6	0,054
329,1	0,053
329,5	0,052
330	0,052
330,5	0,051
330,9	0,051
331,4	0,051
331,8	0,05
332,3	0,05
332,8	0,05
333,2	0,049
333,7	0,049
334,1	0,048
334,6	0,047
335,1	0,047
335,5	0,046
336	0,046
336,4	0,045
336,9	0,045
337,4	0,044
337,8	0,044
338,3	0,044
338,7	0,044
339,2	0,044
339,7	0,044
340,1	0,044
340,6	0,043
341	0,042
341,5	0,042
342	0,042
342,4	0,041
342,9	0,041
343,3	0,041
343,8	0,041
344,2	0,041
344,7	0,04
345,2	0,04
345,6	0,04
346,1	0,04
346,5	0,04
347	0,04
347,5	0,04
347,9	0,039
348,4	0,039
348,8	0,038
349,3	0,038
349,8	0,038
350,2	0,038
350,7	0,038
351,1	0,038
351,6	0,037
352	0,038
352,5	0,037
353	0,037
353,4	0,037
353,9	0,037
354,3	0,036
354,8	0,036
355,3	0,036
355,7	0,036
356,2	0,035
356,6	0,035
357,1	0,035
357,5	0,035
358	0,035
358,5	0,034
358,9	0,034
359,4	0,035
359,8	0,034
360,3	0,034
360,8	0,034
361,2	0,034
361,7	0,034
362,1	0,034
362,6	0,033
363	0,033
363,5	0,032
364	0,032
364,4	0,032
364,9	0,032
365,3	0,031
365,8	0,032
366,3	0,031
366,7	0,031
367,2	0,031
367,6	0,031
368,1	0,031
368,5	0,03
369	0,03
369,5	0,03
369,9	0,03
370,4	0,03
370,8	0,03
371,3	0,03
371,7	0,029
372,2	0,029
372,7	0,029
373,1	0,029
373,6	0,029
374	0,029
374,5	0,029
374,9	0,029
375,4	0,029
375,9	0,028
376,3	0,028
376,8	0,028
377,2	0,028
377,7	0,028
378,2	0,027
378,6	0,027
379,1	0,027
379,5	0,027
380	0,027
380,4	0,027
380,9	0,027
381,4	0,027
381,8	0,026
382,3	0,026
382,7	0,025
383,2	0,025
383,6	0,025
384,1	0,025
384,6	0,025
385	0,025
385,5	0,026
385,9	0,025
386,4	0,026
386,8	0,026
387,3	0,025
387,7	0,025
388,2	0,025
388,7	0,024
389,1	0,025
389,6	0,024
390	0,024
390,5	0,024
390,9	0,024
391,4	0,024
391,9	0,024
392,3	0,024
392,8	0,024
393,2	0,024
393,7	0,023
394,1	0,023
394,6	0,023
395,1	0,023
395,5	0,023
396	0,023
396,4	0,023
396,9	0,023
397,3	0,023
397,8	0,022
398,2	0,022
398,7	0,022
399,2	0,022
399,6	0,022
400,1	0,022
400,5	0,022
401	0,022
401,4	0,022
401,9	0,022
402,4	0,022
402,8	0,022
403,3	0,022
403,7	0,022
404,2	0,022
404,6	0,022
405,1	0,022
405,5	0,021
406	0,021
406,5	0,021
406,9	0,021
407,4	0,02
407,8	0,021
408,3	0,02
408,7	0,02
409,2	0,02
409,6	0,02
410,1	0,02
410,6	0,02
411	0,02
411,5	0,02
411,9	0,02
412,4	0,02
412,8	0,021
413,3	0,02
413,7	0,02
414,2	0,02
414,7	0,021
415,1	0,02
415,6	0,02
416	0,02
416,5	0,02
416,9	0,02
417,4	0,019
417,8	0,02
418,3	0,02
418,8	0,02
419,2	0,02
419,7	0,02
420,1	0,02
420,6	0,02
421	0,02
421,5	0,02
421,9	0,02
422,4	0,019
422,8	0,019
423,3	0,019
423,8	0,019
424,2	0,019
424,7	0,019
425,1	0,019
425,6	0,019
426	0,019
426,5	0,019
426,9	0,019
427,4	0,019
427,9	0,019
428,3	0,019
428,8	0,019
429,2	0,018
429,7	0,018
430,1	0,017
430,6	0,017
431	0,016
431,5	0,016
431,9	0,017
432,4	0,017
432,8	0,017
433,3	0,018
433,8	0,018
434,2	0,018
434,7	0,018
435,1	0,017
435,6	0,017
436	0,018
436,5	0,018
436,9	0,018
437,4	0,018
437,8	0,018
438,3	0,018
438,8	0,019
439,2	0,018
439,7	0,018
440,1	0,018
440,6	0,017
441	0,017
441,5	0,017
441,9	0,016
442,4	0,016
442,8	0,017
443,3	0,016
443,7	0,017
444,2	0,017
444,7	0,017
445,1	0,017
445,6	0,017
446	0,016
446,5	0,017
446,9	0,017
447,4	0,017
447,8	0,018
448,3	0,017
448,7	0,017
449,2	0,017
449,6	0,017
450,1	0,018
450,6	0,017
451	0,017
451,5	0,017
451,9	0,017
452,4	0,017
452,8	0,017
453,3	0,016
453,7	0,016
454,2	0,016
454,6	0,016
455,1	0,016
455,5	0,016
456	0,016
456,4	0,016
456,9	0,016
457,3	0,016
457,8	0,016
458,3	0,016
458,7	0,015
459,2	0,015
459,6	0,016
460,1	0,015
460,5	0,015
461	0,015
461,4	0,016
461,9	0,016
462,3	0,016
462,8	0,016
463,2	0,016
463,7	0,015
464,1	0,015
464,6	0,015
465	0,015
465,5	0,015
466	0,015
466,4	0,015
466,9	0,015
467,3	0,015
467,8	0,015
468,2	0,015
468,7	0,015
469,1	0,014
469,6	0,014
470	0,014
470,5	0,015
470,9	0,014
471,4	0,015
471,8	0,015
472,3	0,015
472,7	0,015
473,2	0,015
473,6	0,015
474,1	0,015
474,5	0,015
475	0,015
475,4	0,015
475,9	0,015
476,4	0,015
476,8	0,015
477,3	0,015
477,7	0,015
478,2	0,015
478,6	0,015
479,1	0,015
479,5	0,015
480	0,015
480,4	0,015
480,9	0,015
481,3	0,014
481,8	0,014
482,2	0,014
482,7	0,015
483,1	0,016
483,6	0,017
484	0,018
484,5	0,017
484,9	0,014
485,4	0,013
485,8	0,013
486,3	0,012
486,7	0,011
487,2	0,01
487,6	0,01
488,1	0,013
488,5	0,014
489	0,014
489,4	0,014
489,9	0,014
490,4	0,014
490,8	0,014
491,3	0,014
491,7	0,014
492,2	0,014
492,6	0,013
493,1	0,014
493,5	0,014
494	0,014
494,4	0,014
494,9	0,014
495,3	0,013
495,8	0,013
496,2	0,013
496,7	0,013
497,1	0,012
497,6	0,012
498	0,012
498,5	0,012
498,9	0,012
499,4	0,012
499,8	0,012
500,3	0,012
500,7	0,011
501,2	0,012
501,6	0,012
502,1	0,012
502,5	0,011
503	0,012
503,4	0,011
503,9	0,012
504,3	0,012
504,8	0,012
505,2	0,012
505,7	0,012
506,1	0,013
506,6	0,013
507	0,013
507,5	0,013
507,9	0,013
508,4	0,013
508,8	0,013
509,3	0,013
509,7	0,013
510,2	0,013
510,6	0,013
511,1	0,013
511,5	0,013
512	0,013
512,4	0,013
512,9	0,013
513,3	0,012
513,8	0,012
514,2	0,011
514,7	0,012
515,1	0,012
515,6	0,012
516	0,012
516,5	0,012
516,9	0,012
517,4	0,012
517,8	0,012
518,3	0,012
518,7	0,011
519,2	0,012
519,6	0,012
520,1	0,012
520,5	0,011
521	0,011
521,4	0,011
521,9	0,011
522,3	0,011
522,8	0,011
523,2	0,011
523,7	0,011
524,1	0,011
524,6	0,011
525	0,012
525,5	0,011
525,9	0,011
526,4	0,01
526,8	0,01
527,3	0,01
527,7	0,011
528,2	0,011
528,6	0,011
529,1	0,011
529,5	0,012
530	0,011
530,4	0,011
530,9	0,011
531,3	0,011
531,8	0,011
532,2	0,011
532,6	0,011
533,1	0,011
533,5	0,011
534	0,011
534,4	0,011
534,9	0,011
535,3	0,011
535,8	0,011
536,2	0,011
536,7	0,011
537,1	0,011
537,6	0,011
538	0,01
538,5	0,01
538,9	0,01
539,4	0,01
539,8	0,01
540,3	0,01
540,7	0,01
541,2	0,01
541,6	0,009
542,1	0,009
542,5	0,009
543	0,009
543,4	0,009
543,9	0,009
544,3	0,009
544,8	0,009
545,2	0,01
545,7	0,011
546,1	0,011
546,5	0,011
547	0,011
547,4	0,011
547,9	0,01
548,3	0,01
548,8	0,009
549,2	0,009
549,7	0,009
550,1	0,009
550,6	0,01
551	0,01
551,5	0,01
551,9	0,01
552,4	0,01
552,8	0,009
553,3	0,009
553,7	0,009
554,2	0,009
554,6	0,009
555,1	0,009
555,5	0,01
555,9	0,009
556,4	0,009
556,8	0,009
557,3	0,01
557,7	0,01
558,2	0,01
558,6	0,01
559,1	0,01
559,5	0,011
560	0,011
560,4	0,01
560,9	0,01
561,3	0,009
561,8	0,009
562,2	0,009
562,7	0,008
563,1	0,008
563,6	0,008
564	0,008
564,4	0,008
564,9	0,008
565,3	0,008
565,8	0,008
566,2	0,009
566,7	0,009
567,1	0,01
567,6	0,01
568	0,01
568,5	0,01
568,9	0,01
569,4	0,01
569,8	0,009
570,3	0,009
570,7	0,009
571,1	0,008
571,6	0,009
572	0,009
572,5	0,008
572,9	0,009
573,4	0,008
573,8	0,008
574,3	0,009
574,7	0,009
575,2	0,009
575,6	0,009
576,1	0,009
576,5	0,008
576,9	0,008
577,4	0,008
577,8	0,007
578,3	0,007
578,7	0,007
579,2	0,008
579,6	0,008
580,1	0,009
580,5	0,008
581	0,008
581,4	0,007
581,9	0,007
582,3	0,007
582,7	0,007
583,2	0,007
583,6	0,008
584,1	0,008
584,5	0,008
585	0,008
585,4	0,008
585,9	0,008
586,3	0,007
586,8	0,007
587,2	0,008
587,6	0,007
588,1	0,007
588,5	0,007
589	0,007
589,4	0,007
589,9	0,008
590,3	0,008
590,8	0,009
591,2	0,009
591,7	0,009
592,1	0,008
592,5	0,008
593	0,008
593,4	0,008
593,9	0,007
594,3	0,006
594,8	0,006
595,2	0,007
595,7	0,007
596,1	0,007
596,6	0,006
597	0,007
597,4	0,008
597,9	0,008
598,3	0,007
598,8	0,007
599,2	0,008
599,7	0,007
600,1	0,007
600,6	0,006
601	0,007
601,4	0,007
601,9	0,007
602,3	0,006
602,8	0,006
603,2	0,007
603,7	0,007
604,1	0,007
604,6	0,006
605	0,006
605,4	0,007
605,9	0,007
606,3	0,007
606,8	0,007
607,2	0,007
607,7	0,007
608,1	0,008
608,6	0,008
609	0,008
609,4	0,008
609,9	0,008
610,3	0,008
610,8	0,007
611,2	0,007
611,7	0,007
612,1	0,007
612,6	0,007
613	0,007
613,4	0,007
613,9	0,007
614,3	0,006
614,8	0,006
615,2	0,006
615,7	0,007
616,1	0,007
616,6	0,007
617	0,007
617,4	0,007
617,9	0,007
618,3	0,007
618,8	0,007
619,2	0,007
619,7	0,007
620,1	0,007
620,5	0,007
621	0,007
621,4	0,007
621,9	0,007
622,3	0,006
622,8	0,006
623,2	0,006
623,6	0,005
624,1	0,006
624,5	0,005
625	0,005
625,4	0,006
625,9	0,006
626,3	0,006
626,8	0,006
627,2	0,006
627,6	0,006
628,1	0,006
628,5	0,007
629	0,006
629,4	0,006
629,9	0,006
630,3	0,006
630,7	0,006
631,2	0,006
631,6	0,006
632,1	0,006
632,5	0,006
633	0,006
633,4	0,006
633,8	0,006
634,3	0,006
634,7	0,006
635,2	0,006
635,6	0,006
636,1	0,006
636,5	0,006
636,9	0,006
637,4	0,006
637,8	0,006
638,3	0,006
638,7	0,006
639,2	0,006
639,6	0,006
640	0,006
640,5	0,006
640,9	0,006
641,4	0,007
641,8	0,007
642,2	0,006
642,7	0,006
643,1	0,006
643,6	0,005
644	0,005
644,5	0,005
644,9	0,005
645,3	0,005
645,8	0,005
646,2	0,006
646,7	0,006
647,1	0,006
647,6	0,006
648	0,006
648,4	0,006
648,9	0,006
649,3	0,006
649,8	0,006
650,2	0,006
650,6	0,006
651,1	0,006
651,5	0,006
652	0,006
652,4	0,007
652,9	0,008
653,3	0,012
653,7	0,021
654,2	0,015
654,6	0,011
655,1	0,009
655,5	0,006
655,9	0,006
656,4	0,004
656,8	-0,001
657,3	-0,001
657,7	-0,001
658,2	-0,001
658,6	0,005
659	0,006
659,5	0,005
659,9	0,005
660,4	0,005
660,8	0,005
661,2	0,006
661,7	0,006
662,1	0,006
662,6	0,006
663	0,006
663,4	0,006
663,9	0,006
664,3	0,005
664,8	0,005
665,2	0,005
665,6	0,005
666,1	0,005
666,5	0,006
667	0,005
667,4	0,006
667,9	0,006
668,3	0,006
668,7	0,006
669,2	0,006
669,6	0,006
670,1	0,006
670,5	0,006
670,9	0,006
671,4	0,006
671,8	0,006
672,3	0,005
672,7	0,005
673,1	0,005
673,6	0,005
674	0,005
674,5	0,005
674,9	0,005
675,3	0,005
675,8	0,005
676,2	0,005
676,7	0,005
677,1	0,005
677,5	0,005
678	0,005
678,4	0,005
678,9	0,005
679,3	0,005
679,7	0,005
680,2	0,005
680,6	0,005
681,1	0,005
681,5	0,005
681,9	0,005
682,4	0,005
682,8	0,006
683,3	0,006
683,7	0,005
684,1	0,005
684,6	0,005
685	0,005
685,5	0,005
685,9	0,004
686,3	0,004
686,8	0,005
687,2	0,005
687,7	0,005
688,1	0,005
688,5	0,006
689	0,006
689,4	0,006
689,9	0,006
690,3	0,006
690,7	0,006
691,2	0,006
691,6	0,006
692	0,006
692,5	0,005
692,9	0,005
693,4	0,005
693,8	0,005
694,2	0,004
694,7	0,005
695,1	0,005
695,6	0,005
696	0,006
696,4	0,005
696,9	0,006
697,3	0,005
697,8	0,005
698,2	0,005
698,6	0,004
699,1	0,004
699,5	0,004
699,9	0,004
700,4	0,004
700,8	0,004
701,3	0,004
701,7	0,004
702,1	0,004
702,6	0,005
703	0,005
703,5	0,005
703,9	0,005
704,3	0,005
704,8	0,005
705,2	0,005
705,6	0,005
706,1	0,005
706,5	0,005
707	0,006
707,4	0,006
707,8	0,005
708,3	0,005
708,7	0,005
709,2	0,005
709,6	0,005
710	0,005
710,5	0,005
710,9	0,004
711,3	0,004
711,8	0,004
712,2	0,004
712,7	0,005
713,1	0,004
713,5	0,004
714	0,004
714,4	0,004
714,8	0,004
715,3	0,004
715,7	0,004
716,2	0,004
716,6	0,005
717	0,005
717,5	0,005
717,9	0,005
718,3	0,005
718,8	0,005
719,2	0,005
719,7	0,005
720,1	0,005
720,5	0,005
721	0,005
721,4	0,005
721,8	0,005
722,3	0,005
722,7	0,005
723,2	0,005
723,6	0,006
724	0,006
724,5	0,006
724,9	0,006
725,3	0,005
725,8	0,005
726,2	0,006
726,7	0,006
727,1	0,005
727,5	0,005
728	0,005
728,4	0,006
728,8	0,005
729,3	0,005
729,7	0,005
730,1	0,005
730,6	0,004
731	0,005
731,5	0,005
731,9	0,005
732,3	0,005
732,8	0,005
733,2	0,005
733,6	0,005
734,1	0,005
734,5	0,004
734,9	0,004
735,4	0,004
735,8	0,004
736,3	0,004
736,7	0,004
737,1	0,004
737,6	0,004
738	0,004
738,4	0,004
738,9	0,004
739,3	0,004
739,7	0,004
740,2	0,003
740,6	0,003
741,1	0,003
741,5	0,003
741,9	0,003
742,4	0,003
742,8	0,004
743,2	0,004
743,7	0,004
744,1	0,004
744,5	0,004
745	0,004
745,4	0,004
745,8	0,004
746,3	0,004
746,7	0,004
747,2	0,005
747,6	0,005
748	0,005
748,5	0,005
748,9	0,006
749,3	0,006
749,8	0,006
750,2	0,005
750,6	0,005
751,1	0,005
751,5	0,004
751,9	0,004
752,4	0,004
752,8	0,004
753,3	0,004
753,7	0,004
754,1	0,004
754,6	0,004
755	0,005
755,4	0,005
755,9	0,006
756,3	0,006
756,7	0,006
757,2	0,006
757,6	0,006
758	0,005
758,5	0,005
758,9	0,005
759,3	0,005
759,8	0,004
760,2	0,004
760,6	0,004
761,1	0,004
761,5	0,004
761,9	0,004
762,4	0,004
762,8	0,005
763,3	0,005
763,7	0,005
764,1	0,005
764,6	0,005
765	0,005
765,4	0,005
765,9	0,005
766,3	0,005
766,7	0,005
767,2	0,006
767,6	0,006
768	0,006
768,5	0,006
768,9	0,006
769,3	0,006
769,8	0,006
770,2	0,006
770,6	0,005
771,1	0,005
771,5	0,005
771,9	0,005
772,4	0,005
772,8	0,005
773,2	0,005
773,7	0,004
774,1	0,004
774,5	0,004
775	0,004
775,4	0,004
775,8	0,004
776,3	0,004
776,7	0,004
777,1	0,004
777,6	0,004
778	0,004
778,4	0,004
778,9	0,004
779,3	0,004
779,7	0,004
780,2	0,004
780,6	0,004
781	0,004
781,5	0,004
781,9	0,005
782,3	0,005
782,8	0,004
783,2	0,004
783,6	0,005
784,1	0,005
784,5	0,005
784,9	0,005
785,4	0,005
785,8	0,006
786,2	0,006
786,7	0,006
787,1	0,005
787,5	0,005
788	0,005
788,4	0,004
788,8	0,004
789,3	0,004
789,7	0,004
790,1	0,004
790,6	0,004
791	0,004
791,4	0,005
791,9	0,005
792,3	0,006
792,7	0,006
793,2	0,006
793,6	0,005
794	0,005
794,5	0,005
794,9	0,005
795,3	0,005
795,8	0,004
796,2	0,005
796,6	0,005
797,1	0,005
797,5	0,005
797,9	0,005
798,4	0,004
798,8	0,004
799,2	0,004
799,7	0,004
800,1	0,004
800,5	0,004
801	0,004
801,4	0,004
801,8	0,004
802,2	0,004
802,7	0,004
803,1	0,003
803,5	0,004
804	0,004
804,4	0,004
804,8	0,004
805,3	0,004
805,7	0,005
806,1	0,005
806,6	0,005
807	0,005
807,4	0,005
807,9	0,005
808,3	0,005
808,7	0,005
809,2	0,005
809,6	0,006
810	0,006
810,4	0,005
810,9	0,005
811,3	0,005
811,7	0,005
812,2	0,005
812,6	0,005
813	0,004
813,5	0,005
813,9	0,005
814,3	0,005
814,8	0,005
815,2	0,005
815,6	0,005
816,1	0,006
816,5	0,006
816,9	0,006
817,3	0,005
817,8	0,005
818,2	0,005
818,6	0,005
819,1	0,006
819,5	0,005
819,9	0,005
820,4	0,005
820,8	0,005
821,2	0,005
821,7	0,005
822,1	0,005
822,5	0,005
822,9	0,004
823,4	0,004
823,8	0,004
824,2	0,004
824,7	0,003
825,1	0,003
825,5	0,003
826	0,004
826,4	0,004
826,8	0,004
827,3	0,004
827,7	0,005
828,1	0,005
828,5	0,005
829	0,004
829,4	0,004
829,8	0,004
830,3	0,005
830,7	0,004
831,1	0,004
831,6	0,004
832	0,004
832,4	0,004
832,8	0,004
833,3	0,004
833,7	0,004
834,1	0,004
834,6	0,004
835	0,004
835,4	0,004
835,8	0,004
836,3	0,004
836,7	0,004
837,1	0,004
837,6	0,004
838	0,004
838,4	0,003
838,9	0,004
839,3	0,003
839,7	0,003
840,1	0,003
840,6	0,003
841	0,004
841,4	0,004
841,9	0,005
842,3	0,005
842,7	0,005
843,1	0,005
843,6	0,005
844	0,005
844,4	0,005
844,9	0,005
845,3	0,005
845,7	0,005
846,2	0,005
846,6	0,005
847	0,006
847,4	0,005
847,9	0,005
848,3	0,006
848,7	0,006
849,2	0,006
849,6	0,005
850	0,005
850,4	0,005
850,9	0,005
851,3	0,005
851,7	0,005
852,2	0,004
852,6	0,004
853	0,004
853,4	0,004
853,9	0,004
854,3	0,004
854,7	0,004
855,2	0,005
855,6	0,005
856	0,005
856,4	0,005
856,9	0,004
857,3	0,004
857,7	0,004
858,2	0,005
858,6	0,005
859	0,004
859,4	0,004
859,9	0,005
860,3	0,005
860,7	0,005
861,1	0,005
861,6	0,005
862	0,006
862,4	0,006
862,9	0,006
863,3	0,006
863,7	0,005
864,1	0,005
864,6	0,005
865	0,005
865,4	0,005
865,9	0,005
866,3	0,005
866,7	0,005
867,1	0,005
867,6	0,005
868	0,006
868,4	0,006
868,8	0,005
869,3	0,005
869,7	0,005
870,1	0,005
870,6	0,005
871	0,005
871,4	0,004
871,8	0,004
872,3	0,004
872,7	0,005
873,1	0,005
873,5	0,005
874	0,005
874,4	0,005
874,8	0,005
875,3	0,005
875,7	0,005
876,1	0,005
876,5	0,005
877	0,004
877,4	0,005
877,8	0,005
878,2	0,005
878,7	0,004
879,1	0,004
879,5	0,004
879,9	0,004
880,4	0,004
880,8	0,004
881,2	0,005
881,7	0,005
882,1	0,005
882,5	0,006
882,9	0,006
883,4	0,006
883,8	0,005
884,2	0,005
884,6	0,005
885,1	0,004
885,5	0,004
885,9	0,004
886,3	0,004
886,8	0,005
887,2	0,005
887,6	0,005
888	0,005
888,5	0,005
888,9	0,004
889,3	0,004
889,8	0,004
890,2	0,004
890,6	0,004
891	0,004
891,5	0,004
891,9	0,005
892,3	0,005
892,7	0,005
893,2	0,005
893,6	0,005
894	0,005
894,4	0,005
894,9	0,005
895,3	0,005
895,7	0,005
896,1	0,005
896,6	0,005
897	0,005
897,4	0,005
897,8	0,006
898,3	0,005
898,7	0,005
899,1	0,005
899,5	0,006
900	0,006
900,4	0,006
900,8	0,005
901,2	0,006
901,7	0,006
902,1	0,005
902,5	0,005
902,9	0,005
903,4	0,005
903,8	0,004
904,2	0,004
904,6	0,004
905,1	0,004
905,5	0,004
905,9	0,005
906,3	0,005
906,8	0,005
907,2	0,005
907,6	0,004
908	0,005
908,5	0,004
908,9	0,004
909,3	0,004
909,7	0,004
910,2	0,004
910,6	0,004
911	0,004
911,4	0,004
911,9	0,004
912,3	0,004
912,7	0,004
913,1	0,004
913,6	0,004
914	0,004
914,4	0,004
914,8	0,004
915,3	0,004
915,7	0,004
916,1	0,005
916,5	0,005
916,9	0,005
917,4	0,005
917,8	0,005
918,2	0,004
918,6	0,004
919,1	0,004
919,5	0,004
919,9	0,004
920,3	0,003
920,8	0,004
921,2	0,004
921,6	0,004
922	0,004
922,5	0,004
922,9	0,005
923,3	0,005
923,7	0,005
924,2	0,005
924,6	0,005
925	0,005
925,4	0,005
925,8	0,005
926,3	0,005
926,7	0,004
927,1	0,004
927,5	0,004
928	0,004
928,4	0,003
928,8	0,003
929,2	0,003
929,7	0,003
930,1	0,003
930,5	0,003
930,9	0,004
931,3	0,004
931,8	0,004
932,2	0,004
932,6	0,004
933	0,004
933,5	0,003
933,9	0,003
934,3	0,003
934,7	0,003
935,2	0,003
935,6	0,003
936	0,003
936,4	0,004
936,8	0,004
937,3	0,004
937,7	0,004
938,1	0,004
938,5	0,004
939	0,004
939,4	0,003
939,8	0,004
940,2	0,004
940,6	0,003
941,1	0,003
941,5	0,003
941,9	0,003
942,3	0,003
942,8	0,002
943,2	0,002
943,6	0,002
944	0,002
944,4	0,003
944,9	0,003
945,3	0,003
945,7	0,004
946,1	0,005
946,6	0,005
947	0,005
947,4	0,005
947,8	0,006
948,2	0,007
948,7	0,007
949,1	0,007
949,5	0,006
949,9	0,006
950,3	0,006
950,8	0,006
951,2	0,005
951,6	0,005
952	0,005
952,5	0,005
952,9	0,005
953,3	0,005
953,7	0,005
954,1	0,004
954,6	0,004
955	0,004
955,4	0,004
955,8	0,004
956,2	0,005
956,7	0,005
957,1	0,005
957,5	0,005
957,9	0,005
958,3	0,004
958,8	0,004
959,2	0,003
959,6	0,003
960	0,003
960,5	0,003
960,9	0,003
961,3	0,003
961,7	0,003
962,1	0,003
962,6	0,004
963	0,004
963,4	0,004
963,8	0,004
964,2	0,004
964,7	0,004
965,1	0,004
965,5	0,003
965,9	0,003
966,3	0,003
966,8	0,003
967,2	0,003
967,6	0,003
968	0,002
968,4	0,003
968,9	0,003
969,3	0,002
969,7	0,002
970,1	0,003
970,5	0,003
971	0,003
971,4	0,004
971,8	0,004
972,2	0,004
972,6	0,004
973,1	0,004
973,5	0,004
973,9	0,004
974,3	0,004
974,7	0,004
975,2	0,004
975,6	0,004
976	0,004
976,4	0,004
976,8	0,005
977,3	0,006
977,7	0,006
978,1	0,006
978,5	0,006
978,9	0,006
979,4	0,006
979,8	0,006
980,2	0,005
980,6	0,005
981	0,006
981,5	0,006
981,9	0,006
982,3	0,006
982,7	0,005
983,1	0,005
983,6	0,005
984	0,004
984,4	0,005
984,8	0,005
985,2	0,005
985,6	0,005
986,1	0,005
986,5	0,005
986,9	0,006
987,3	0,006
987,7	0,005
988,2	0,005
988,6	0,005
989	0,005
989,4	0,005
989,8	0,005
990,3	0,006
990,7	0,006
991,1	0,007
991,5	0,007
991,9	0,007
992,3	0,007
992,8	0,007
993,2	0,007
993,6	0,007
994	0,007
994,4	0,006
994,9	0,006
995,3	0,006
995,7	0,006
996,1	0,006
996,5	0,006
996,9	0,006
997,4	0,007
997,8	0,007
998,2	0,006
998,6	0,007
999	0,007
999,5	0,007
999,9	0,007
1000,3	0,006
1000,7	0,006
1001,1	0,006
1001,5	0,007
1002	0,006
1002,4	0,007
1002,8	0,006
1003,2	0,007
1003,6	0,007
1004	0,008
1004,5	0,008
1004,9	0,007
1005,3	0,007
1005,7	0,008
1006,1	0,008
1006,6	0,008
1007	0,007
1007,4	0,007
1007,8	0,006
1008,2	0,006
1008,6	0,005
1009,1	0,005
1009,5	0,004
1009,9	0,004
1010,3	0,004
1010,7	0,004
1011,1	0,004
1011,6	0,005
1012	0,005
1012,4	0,006
1012,8	0,006
1013,2	0,006
1013,6	0,007
1014,1	0,007
1014,5	0,007
1014,9	0,006
1015,3	0,006
1015,7	0,006
1016,1	0,006
1016,6	0,006
1017	0,007
1017,4	0,007
1017,8	0,008
1018,2	0,007
1018,6	0,007
1019,1	0,008
1019,5	0,007
1019,9	0,007
1020,3	0,007
1020,7	0,007
1021,1	0,007
1021,6	0,007
1022	0,007
1022,4	0,007
1022,8	0,008
1023,2	0,008
1023,6	0,008
1024,1	0,008
1024,5	0,008
1024,9	0,008
1025,3	0,008
1025,7	0,007
1026,1	0,008
1026,6	0,008
1027	0,008
1027,4	0,009
1027,8	0,009
1028,2	0,009
1028,6	0,01
1029	0,01
1029,5	0,01
1029,9	0,01
1030,3	0,01
1030,7	0,01
1031,1	0,01
1031,5	0,01
1032	0,01
1032,4	0,01
1032,8	0,01
1033,2	0,01
1033,6	0,01
1034	0,01
1034,4	0,009
1034,9	0,01
1035,3	0,009
1035,7	0,01
1036,1	0,01
1036,5	0,01
1036,9	0,01
1037,4	0,01
1037,8	0,01
1038,2	0,009
1038,6	0,009
1039	0,009
1039,4	0,009
1039,8	0,009
1040,3	0,01
1040,7	0,009
1041,1	0,009
1041,5	0,009
1041,9	0,009
1042,3	0,009
1042,7	0,01
1043,2	0,009
1043,6	0,009
1044	0,009
1044,4	0,008
1044,8	0,008
1045,2	0,008
1045,6	0,008
1046,1	0,008
1046,5	0,008
1046,9	0,008
1047,3	0,009
1047,7	0,009
1048,1	0,009
1048,5	0,01
1049	0,01
1049,4	0,01
1049,8	0,01
1050,2	0,009
1050,6	0,009
1051	0,009
1051,4	0,008
1051,9	0,009
1052,3	0,009
1052,7	0,01
1053,1	0,009
1053,5	0,009
1053,9	0,009
1054,3	0,009
1054,8	0,009
1055,2	0,008
1055,6	0,008
1056	0,008
1056,4	0,008
1056,8	0,008
1057,2	0,008
1057,6	0,008
1058,1	0,008
1058,5	0,008
1058,9	0,009
1059,3	0,008
1059,7	0,009
1060,1	0,011
1060,5	0,011
1061	0,012
1061,4	0,011
1061,8	0,011
1062,2	0,011
1062,6	0,011
1063	0,009
1063,4	0,01
1063,8	0,009
1064,3	0,01
1064,7	0,009
1065,1	0,009
1065,5	0,009
1065,9	0,009
1066,3	0,009
1066,7	0,01
1067,1	0,008
1067,6	0,008
1068	0,009
1068,4	0,009
1068,8	0,009
1069,2	0,009
1069,6	0,009
1070	0,01
1070,4	0,011
1070,9	0,011
1071,3	0,012
1071,7	0,012
1072,1	0,012
1072,5	0,012
1072,9	0,012
1073,3	0,012
1073,7	0,012
1074,2	0,013
1074,6	0,014
1075	0,014
1075,4	0,014
1075,8	0,014
1076,2	0,013
1076,6	0,012
1077	0,011
1077,5	0,01
1077,9	0,01
1078,3	0,01
1078,7	0,009
1079,1	0,011
1079,5	0,011
1079,9	0,011
1080,3	0,013
1080,7	0,014
1081,2	0,014
1081,6	0,015
1082	0,015
1082,4	0,015
1082,8	0,016
1083,2	0,014
1083,6	0,013
1084	0,014
1084,5	0,017
1084,9	0,015
1085,3	0,015
1085,7	0,013
1086,1	0,013
1086,5	0,014
1086,9	0,016
1087,3	0,016
1087,7	0,018
1088,2	0,021
1088,6	0,022
1089	0,022
1089,4	0,021
1089,8	0,02
1090,2	0,017
1090,6	0,021
1091	0,019
1091,4	0,024
1091,9	0,026
1092,3	0,026
1092,7	0,026
1093,1	0,029
1093,5	0,029
1093,9	0,027
1094,3	0,026
1094,7	0,025
1095,1	0,03
1095,5	0,03
1096	0,038
1096,4	0,037
1096,8	0,037
1097,2	0,035
1097,6	0,04
1098	0,043
1098,4	0,044
1098,8	0,038
1099,2	0,045
1099,6	0,052
1100,1	0,052
1100,5	0,05
1100,9	0,047
1101,3	0,049
1101,7	0,051
1102,1	0,047
1102,5	0,053
1102,9	0,069
1103,3	0,079
1103,7	0,079
1104,2	0,073
1104,6	0,076
1105	0,08
1105,4	0,077
1105,8	0,07
1106,2	0,057
1106,6	0,06
1107	0,092
1107,4	0,096
1107,8	0,091
1108,3	-0,241
