Data from Absorbance_133.txt Node
Date: Fri Nov 13 19:16:17 MSK 2020
User: vat
Spectrometer: MAYP114033
Trigger mode: 0
Integration Time (sec): 8,000000E-3
Scans to average: 10
Electric dark correction enabled: true
Nonlinearity correction enabled: false
Boxcar width: 3
XAxis mode: Wavelengths
Number of Pixels in Spectrum: 2068
>>>>>Begin Spectral Data<<<<<
199,4	-0
199,9	0,398
200,4	0,268
200,8	0,127
201,3	0,068
201,8	0,046
202,2	0,034
202,7	0,048
203,2	0,04
203,6	0,046
204,1	0,064
204,6	0,078
205	0,072
205,5	0,079
206	0,071
206,4	0,069
206,9	0,059
207,4	0,045
207,8	0,041
208,3	0,051
208,8	0,043
209,2	0,037
209,7	0,026
210,2	0,018
210,6	0,02
211,1	0,019
211,5	0,016
212	0,017
212,5	0,024
212,9	0,05
213,4	0,048
213,9	0,041
214,3	0,053
214,8	0,05
215,3	0,043
215,7	0,04
216,2	0,018
216,7	0,014
217,1	0,022
217,6	0,009
218,1	0,001
218,5	0,012
219	-0,007
219,5	0,006
219,9	0,014
220,4	0,024
220,9	0,041
221,3	0,041
221,8	0,041
222,3	0,074
222,7	0,07
223,2	0,077
223,6	0,061
224,1	0,055
224,6	0,072
225	0,078
225,5	0,066
226	0,08
226,4	0,07
226,9	0,081
227,4	0,075
227,8	0,078
228,3	0,073
228,8	0,074
229,2	0,064
229,7	0,071
230,2	0,061
230,6	0,062
231,1	0,057
231,5	0,058
232	0,058
232,5	0,054
232,9	0,06
233,4	0,069
233,9	0,063
234,3	0,059
234,8	0,065
235,3	0,065
235,7	0,071
236,2	0,082
236,7	0,08
237,1	0,099
237,6	0,099
238,1	0,097
238,5	0,101
239	0,106
239,4	0,101
239,9	0,103
240,4	0,109
240,8	0,119
241,3	0,124
241,8	0,124
242,2	0,128
242,7	0,133
243,2	0,133
243,6	0,13
244,1	0,131
244,6	0,13
245	0,14
245,5	0,15
245,9	0,154
246,4	0,163
246,9	0,164
247,3	0,167
247,8	0,17
248,3	0,172
248,7	0,173
249,2	0,18
249,7	0,183
250,1	0,187
250,6	0,191
251	0,193
251,5	0,197
252	0,2
252,4	0,203
252,9	0,203
253,4	0,205
253,8	0,209
254,3	0,213
254,8	0,215
255,2	0,218
255,7	0,22
256,1	0,225
256,6	0,231
257,1	0,237
257,5	0,241
258	0,248
258,5	0,254
258,9	0,261
259,4	0,269
259,9	0,275
260,3	0,282
260,8	0,29
261,2	0,298
261,7	0,307
262,2	0,314
262,6	0,322
263,1	0,33
263,6	0,338
264	0,346
264,5	0,354
264,9	0,362
265,4	0,37
265,9	0,378
266,3	0,387
266,8	0,396
267,3	0,405
267,7	0,413
268,2	0,422
268,7	0,432
269,1	0,443
269,6	0,452
270	0,462
270,5	0,471
271	0,48
271,4	0,489
271,9	0,497
272,4	0,505
272,8	0,513
273,3	0,52
273,7	0,528
274,2	0,536
274,7	0,543
275,1	0,55
275,6	0,557
276,1	0,563
276,5	0,571
277	0,577
277,4	0,583
277,9	0,589
278,4	0,594
278,8	0,599
279,3	0,604
279,8	0,607
280,2	0,61
280,7	0,612
281,1	0,613
281,6	0,614
282,1	0,614
282,5	0,614
283	0,613
283,4	0,614
283,9	0,613
284,4	0,612
284,8	0,61
285,3	0,608
285,8	0,605
286,2	0,602
286,7	0,597
287,1	0,593
287,6	0,588
288,1	0,582
288,5	0,576
289	0,568
289,5	0,562
289,9	0,553
290,4	0,545
290,8	0,536
291,3	0,528
291,8	0,518
292,2	0,509
292,7	0,498
293,1	0,487
293,6	0,476
294,1	0,464
294,5	0,453
295	0,441
295,5	0,429
295,9	0,417
296,4	0,405
296,8	0,393
297,3	0,38
297,8	0,368
298,2	0,356
298,7	0,343
299,1	0,331
299,6	0,319
300,1	0,308
300,5	0,296
301	0,285
301,5	0,274
301,9	0,263
302,4	0,253
302,8	0,242
303,3	0,232
303,8	0,222
304,2	0,213
304,7	0,204
305,1	0,194
305,6	0,186
306,1	0,178
306,5	0,17
307	0,163
307,4	0,156
307,9	0,149
308,4	0,143
308,8	0,136
309,3	0,131
309,8	0,125
310,2	0,119
310,7	0,114
311,1	0,11
311,6	0,105
312,1	0,101
312,5	0,097
313	0,093
313,4	0,089
313,9	0,086
314,4	0,082
314,8	0,079
315,3	0,076
315,7	0,073
316,2	0,071
316,7	0,068
317,1	0,066
317,6	0,065
318	0,064
318,5	0,062
319	0,061
319,4	0,059
319,9	0,058
320,3	0,056
320,8	0,055
321,3	0,053
321,7	0,052
322,2	0,05
322,6	0,05
323,1	0,049
323,6	0,048
324	0,048
324,5	0,047
324,9	0,046
325,4	0,046
325,9	0,046
326,3	0,045
326,8	0,045
327,2	0,044
327,7	0,043
328,2	0,043
328,6	0,042
329,1	0,042
329,5	0,041
330	0,041
330,5	0,041
330,9	0,041
331,4	0,04
331,8	0,04
332,3	0,04
332,8	0,04
333,2	0,039
333,7	0,039
334,1	0,039
334,6	0,038
335,1	0,038
335,5	0,038
336	0,037
336,4	0,037
336,9	0,037
337,4	0,037
337,8	0,037
338,3	0,037
338,7	0,036
339,2	0,036
339,7	0,036
340,1	0,035
340,6	0,035
341	0,034
341,5	0,034
342	0,034
342,4	0,034
342,9	0,034
343,3	0,034
343,8	0,033
344,2	0,034
344,7	0,033
345,2	0,034
345,6	0,034
346,1	0,033
346,5	0,033
347	0,033
347,5	0,033
347,9	0,033
348,4	0,033
348,8	0,032
349,3	0,032
349,8	0,031
350,2	0,031
350,7	0,031
351,1	0,03
351,6	0,03
352	0,03
352,5	0,03
353	0,03
353,4	0,03
353,9	0,029
354,3	0,029
354,8	0,029
355,3	0,03
355,7	0,029
356,2	0,029
356,6	0,028
357,1	0,028
357,5	0,028
358	0,028
358,5	0,028
358,9	0,028
359,4	0,028
359,8	0,028
360,3	0,028
360,8	0,028
361,2	0,027
361,7	0,027
362,1	0,027
362,6	0,027
363	0,027
363,5	0,027
364	0,027
364,4	0,027
364,9	0,027
365,3	0,027
365,8	0,027
366,3	0,026
366,7	0,026
367,2	0,026
367,6	0,026
368,1	0,025
368,5	0,025
369	0,025
369,5	0,025
369,9	0,025
370,4	0,024
370,8	0,024
371,3	0,024
371,7	0,024
372,2	0,024
372,7	0,024
373,1	0,024
373,6	0,025
374	0,025
374,5	0,025
374,9	0,025
375,4	0,025
375,9	0,024
376,3	0,024
376,8	0,024
377,2	0,024
377,7	0,024
378,2	0,023
378,6	0,023
379,1	0,023
379,5	0,023
380	0,022
380,4	0,022
380,9	0,022
381,4	0,022
381,8	0,021
382,3	0,021
382,7	0,021
383,2	0,022
383,6	0,022
384,1	0,022
384,6	0,022
385	0,022
385,5	0,022
385,9	0,022
386,4	0,022
386,8	0,022
387,3	0,022
387,7	0,022
388,2	0,022
388,7	0,022
389,1	0,022
389,6	0,022
390	0,022
390,5	0,021
390,9	0,021
391,4	0,02
391,9	0,02
392,3	0,02
392,8	0,02
393,2	0,02
393,7	0,02
394,1	0,02
394,6	0,02
395,1	0,021
395,5	0,02
396	0,02
396,4	0,02
396,9	0,02
397,3	0,02
397,8	0,02
398,2	0,019
398,7	0,019
399,2	0,019
399,6	0,019
400,1	0,019
400,5	0,019
401	0,019
401,4	0,019
401,9	0,018
402,4	0,018
402,8	0,018
403,3	0,018
403,7	0,018
404,2	0,018
404,6	0,018
405,1	0,018
405,5	0,018
406	0,018
406,5	0,018
406,9	0,018
407,4	0,018
407,8	0,018
408,3	0,017
408,7	0,018
409,2	0,018
409,6	0,017
410,1	0,017
410,6	0,017
411	0,017
411,5	0,017
411,9	0,018
412,4	0,017
412,8	0,017
413,3	0,017
413,7	0,017
414,2	0,018
414,7	0,018
415,1	0,018
415,6	0,018
416	0,018
416,5	0,018
416,9	0,018
417,4	0,018
417,8	0,018
418,3	0,018
418,8	0,018
419,2	0,018
419,7	0,018
420,1	0,018
420,6	0,017
421	0,018
421,5	0,017
421,9	0,017
422,4	0,017
422,8	0,017
423,3	0,017
423,8	0,017
424,2	0,016
424,7	0,016
425,1	0,016
425,6	0,015
426	0,015
426,5	0,015
426,9	0,015
427,4	0,015
427,9	0,015
428,3	0,015
428,8	0,015
429,2	0,015
429,7	0,016
430,1	0,016
430,6	0,016
431	0,016
431,5	0,016
431,9	0,016
432,4	0,016
432,8	0,016
433,3	0,015
433,8	0,015
434,2	0,016
434,7	0,015
435,1	0,016
435,6	0,015
436	0,015
436,5	0,014
436,9	0,015
437,4	0,014
437,8	0,014
438,3	0,013
438,8	0,014
439,2	0,014
439,7	0,014
440,1	0,014
440,6	0,015
441	0,015
441,5	0,015
441,9	0,016
442,4	0,015
442,8	0,016
443,3	0,016
443,7	0,016
444,2	0,016
444,7	0,016
445,1	0,016
445,6	0,016
446	0,016
446,5	0,015
446,9	0,015
447,4	0,015
447,8	0,015
448,3	0,014
448,7	0,014
449,2	0,014
449,6	0,014
450,1	0,014
450,6	0,014
451	0,014
451,5	0,015
451,9	0,015
452,4	0,015
452,8	0,015
453,3	0,015
453,7	0,015
454,2	0,015
454,6	0,015
455,1	0,015
455,5	0,014
456	0,014
456,4	0,014
456,9	0,014
457,3	0,014
457,8	0,014
458,3	0,014
458,7	0,013
459,2	0,014
459,6	0,014
460,1	0,014
460,5	0,014
461	0,014
461,4	0,014
461,9	0,014
462,3	0,013
462,8	0,013
463,2	0,013
463,7	0,013
464,1	0,013
464,6	0,013
465	0,013
465,5	0,013
466	0,013
466,4	0,013
466,9	0,013
467,3	0,013
467,8	0,014
468,2	0,013
468,7	0,013
469,1	0,013
469,6	0,013
470	0,013
470,5	0,013
470,9	0,013
471,4	0,013
471,8	0,013
472,3	0,014
472,7	0,014
473,2	0,014
473,6	0,014
474,1	0,014
474,5	0,014
475	0,014
475,4	0,014
475,9	0,013
476,4	0,013
476,8	0,013
477,3	0,012
477,7	0,012
478,2	0,012
478,6	0,012
479,1	0,013
479,5	0,013
480	0,013
480,4	0,014
480,9	0,014
481,3	0,014
481,8	0,014
482,2	0,013
482,7	0,012
483,1	0,012
483,6	0,011
484	0,011
484,5	0,011
484,9	0,011
485,4	0,012
485,8	0,012
486,3	0,012
486,7	0,013
487,2	0,013
487,6	0,013
488,1	0,012
488,5	0,012
489	0,012
489,4	0,012
489,9	0,012
490,4	0,012
490,8	0,013
491,3	0,012
491,7	0,012
492,2	0,012
492,6	0,012
493,1	0,013
493,5	0,014
494	0,013
494,4	0,013
494,9	0,013
495,3	0,012
495,8	0,012
496,2	0,012
496,7	0,012
497,1	0,012
497,6	0,013
498	0,013
498,5	0,013
498,9	0,013
499,4	0,013
499,8	0,013
500,3	0,012
500,7	0,012
501,2	0,012
501,6	0,011
502,1	0,011
502,5	0,011
503	0,011
503,4	0,011
503,9	0,011
504,3	0,011
504,8	0,012
505,2	0,012
505,7	0,012
506,1	0,012
506,6	0,012
507	0,012
507,5	0,012
507,9	0,012
508,4	0,012
508,8	0,012
509,3	0,012
509,7	0,012
510,2	0,011
510,6	0,012
511,1	0,011
511,5	0,011
512	0,011
512,4	0,011
512,9	0,012
513,3	0,012
513,8	0,011
514,2	0,012
514,7	0,012
515,1	0,012
515,6	0,011
516	0,011
516,5	0,011
516,9	0,011
517,4	0,011
517,8	0,01
518,3	0,01
518,7	0,01
519,2	0,01
519,6	0,01
520,1	0,011
520,5	0,011
521	0,011
521,4	0,011
521,9	0,012
522,3	0,012
522,8	0,012
523,2	0,011
523,7	0,012
524,1	0,012
524,6	0,011
525	0,012
525,5	0,011
525,9	0,011
526,4	0,011
526,8	0,011
527,3	0,011
527,7	0,01
528,2	0,01
528,6	0,01
529,1	0,01
529,5	0,01
530	0,01
530,4	0,01
530,9	0,011
531,3	0,011
531,8	0,011
532,2	0,011
532,6	0,01
533,1	0,011
533,5	0,01
534	0,01
534,4	0,011
534,9	0,011
535,3	0,011
535,8	0,011
536,2	0,01
536,7	0,011
537,1	0,011
537,6	0,011
538	0,011
538,5	0,011
538,9	0,011
539,4	0,012
539,8	0,011
540,3	0,011
540,7	0,011
541,2	0,011
541,6	0,01
542,1	0,01
542,5	0,01
543	0,01
543,4	0,01
543,9	0,01
544,3	0,01
544,8	0,01
545,2	0,01
545,7	0,01
546,1	0,01
546,5	0,011
547	0,011
547,4	0,011
547,9	0,011
548,3	0,011
548,8	0,011
549,2	0,011
549,7	0,011
550,1	0,011
550,6	0,011
551	0,011
551,5	0,011
551,9	0,011
552,4	0,011
552,8	0,01
553,3	0,01
553,7	0,01
554,2	0,009
554,6	0,009
555,1	0,009
555,5	0,009
555,9	0,009
556,4	0,01
556,8	0,01
557,3	0,01
557,7	0,01
558,2	0,01
558,6	0,01
559,1	0,01
559,5	0,01
560	0,01
560,4	0,009
560,9	0,009
561,3	0,009
561,8	0,01
562,2	0,01
562,7	0,01
563,1	0,01
563,6	0,01
564	0,01
564,4	0,01
564,9	0,01
565,3	0,01
565,8	0,01
566,2	0,01
566,7	0,009
567,1	0,009
567,6	0,009
568	0,009
568,5	0,009
568,9	0,009
569,4	0,009
569,8	0,01
570,3	0,01
570,7	0,01
571,1	0,01
571,6	0,01
572	0,01
572,5	0,01
572,9	0,01
573,4	0,01
573,8	0,01
574,3	0,011
574,7	0,011
575,2	0,01
575,6	0,01
576,1	0,01
576,5	0,01
576,9	0,01
577,4	0,01
577,8	0,01
578,3	0,01
578,7	0,01
579,2	0,01
579,6	0,01
580,1	0,01
580,5	0,01
581	0,01
581,4	0,011
581,9	0,01
582,3	0,01
582,7	0,01
583,2	0,01
583,6	0,01
584,1	0,01
584,5	0,01
585	0,01
585,4	0,01
585,9	0,01
586,3	0,01
586,8	0,01
587,2	0,01
587,6	0,01
588,1	0,01
588,5	0,01
589	0,01
589,4	0,011
589,9	0,01
590,3	0,011
590,8	0,01
591,2	0,01
591,7	0,01
592,1	0,01
592,5	0,01
593	0,01
593,4	0,01
593,9	0,01
594,3	0,011
594,8	0,01
595,2	0,01
595,7	0,011
596,1	0,01
596,6	0,011
597	0,011
597,4	0,01
597,9	0,01
598,3	0,01
598,8	0,01
599,2	0,01
599,7	0,01
600,1	0,01
600,6	0,01
601	0,009
601,4	0,009
601,9	0,009
602,3	0,009
602,8	0,009
603,2	0,009
603,7	0,009
604,1	0,009
604,6	0,009
605	0,009
605,4	0,009
605,9	0,009
606,3	0,009
606,8	0,01
607,2	0,01
607,7	0,01
608,1	0,01
608,6	0,009
609	0,009
609,4	0,009
609,9	0,009
610,3	0,009
610,8	0,009
611,2	0,009
611,7	0,009
612,1	0,009
612,6	0,009
613	0,01
613,4	0,01
613,9	0,01
614,3	0,01
614,8	0,01
615,2	0,01
615,7	0,01
616,1	0,01
616,6	0,01
617	0,009
617,4	0,01
617,9	0,01
618,3	0,01
618,8	0,01
619,2	0,01
619,7	0,01
620,1	0,009
620,5	0,009
621	0,009
621,4	0,01
621,9	0,01
622,3	0,01
622,8	0,01
623,2	0,01
623,6	0,01
624,1	0,01
624,5	0,01
625	0,01
625,4	0,01
625,9	0,01
626,3	0,01
626,8	0,009
627,2	0,01
627,6	0,01
628,1	0,01
628,5	0,01
629	0,009
629,4	0,009
629,9	0,01
630,3	0,009
630,7	0,01
631,2	0,01
631,6	0,01
632,1	0,01
632,5	0,01
633	0,01
633,4	0,01
633,8	0,01
634,3	0,01
634,7	0,01
635,2	0,01
635,6	0,011
636,1	0,01
636,5	0,01
636,9	0,01
637,4	0,01
637,8	0,009
638,3	0,009
638,7	0,009
639,2	0,009
639,6	0,009
640	0,009
640,5	0,009
640,9	0,01
641,4	0,01
641,8	0,01
642,2	0,01
642,7	0,01
643,1	0,01
643,6	0,01
644	0,009
644,5	0,01
644,9	0,01
645,3	0,01
645,8	0,009
646,2	0,01
646,7	0,01
647,1	0,01
647,6	0,01
648	0,009
648,4	0,009
648,9	0,01
649,3	0,01
649,8	0,01
650,2	0,01
650,6	0,01
651,1	0,01
651,5	0,01
652	0,01
652,4	0,01
652,9	0,009
653,3	0,008
653,7	0,006
654,2	0,003
654,6	0,002
655,1	0,001
655,5	0,004
655,9	0,004
656,4	0,004
656,8	0,005
657,3	0,007
657,7	0,009
658,2	0,013
658,6	0,01
659	0,009
659,5	0,009
659,9	0,009
660,4	0,008
660,8	0,009
661,2	0,009
661,7	0,008
662,1	0,008
662,6	0,008
663	0,008
663,4	0,009
663,9	0,009
664,3	0,009
664,8	0,009
665,2	0,009
665,6	0,009
666,1	0,009
666,5	0,009
667	0,009
667,4	0,009
667,9	0,009
668,3	0,009
668,7	0,009
669,2	0,009
669,6	0,008
670,1	0,009
670,5	0,009
670,9	0,009
671,4	0,01
671,8	0,01
672,3	0,009
672,7	0,009
673,1	0,009
673,6	0,009
674	0,009
674,5	0,009
674,9	0,009
675,3	0,01
675,8	0,01
676,2	0,01
676,7	0,01
677,1	0,01
677,5	0,01
678	0,01
678,4	0,01
678,9	0,01
679,3	0,009
679,7	0,009
680,2	0,009
680,6	0,009
681,1	0,009
681,5	0,009
681,9	0,009
682,4	0,009
682,8	0,009
683,3	0,009
683,7	0,009
684,1	0,009
684,6	0,009
685	0,009
685,5	0,009
685,9	0,009
686,3	0,009
686,8	0,009
687,2	0,009
687,7	0,009
688,1	0,009
688,5	0,009
689	0,009
689,4	0,009
689,9	0,01
690,3	0,01
690,7	0,01
691,2	0,01
691,6	0,01
692	0,01
692,5	0,009
692,9	0,009
693,4	0,009
693,8	0,009
694,2	0,009
694,7	0,009
695,1	0,009
695,6	0,009
696	0,009
696,4	0,01
696,9	0,009
697,3	0,009
697,8	0,009
698,2	0,009
698,6	0,01
699,1	0,01
699,5	0,01
699,9	0,01
700,4	0,009
700,8	0,009
701,3	0,009
701,7	0,009
702,1	0,008
702,6	0,008
703	0,009
703,5	0,009
703,9	0,009
704,3	0,01
704,8	0,01
705,2	0,01
705,6	0,01
706,1	0,009
706,5	0,009
707	0,009
707,4	0,009
707,8	0,009
708,3	0,009
708,7	0,009
709,2	0,009
709,6	0,009
710	0,009
710,5	0,009
710,9	0,009
711,3	0,009
711,8	0,009
712,2	0,009
712,7	0,009
713,1	0,009
713,5	0,009
714	0,01
714,4	0,01
714,8	0,01
715,3	0,01
715,7	0,01
716,2	0,009
716,6	0,009
717	0,009
717,5	0,009
717,9	0,008
718,3	0,008
718,8	0,008
719,2	0,009
719,7	0,009
720,1	0,009
720,5	0,009
721	0,01
721,4	0,01
721,8	0,01
722,3	0,009
722,7	0,009
723,2	0,009
723,6	0,009
724	0,009
724,5	0,009
724,9	0,009
725,3	0,009
725,8	0,009
726,2	0,009
726,7	0,01
727,1	0,01
727,5	0,01
728	0,01
728,4	0,01
728,8	0,009
729,3	0,009
729,7	0,009
730,1	0,009
730,6	0,009
731	0,009
731,5	0,009
731,9	0,009
732,3	0,009
732,8	0,009
733,2	0,009
733,6	0,009
734,1	0,008
734,5	0,008
734,9	0,008
735,4	0,008
735,8	0,008
736,3	0,008
736,7	0,008
737,1	0,009
737,6	0,008
738	0,009
738,4	0,009
738,9	0,009
739,3	0,009
739,7	0,009
740,2	0,009
740,6	0,009
741,1	0,009
741,5	0,009
741,9	0,009
742,4	0,009
742,8	0,009
743,2	0,009
743,7	0,009
744,1	0,009
744,5	0,009
745	0,009
745,4	0,009
745,8	0,009
746,3	0,009
746,7	0,009
747,2	0,009
747,6	0,009
748	0,009
748,5	0,009
748,9	0,009
749,3	0,009
749,8	0,009
750,2	0,009
750,6	0,009
751,1	0,009
751,5	0,009
751,9	0,009
752,4	0,009
752,8	0,009
753,3	0,009
753,7	0,009
754,1	0,009
754,6	0,009
755	0,009
755,4	0,009
755,9	0,008
756,3	0,008
756,7	0,008
757,2	0,008
757,6	0,008
758	0,009
758,5	0,009
758,9	0,009
759,3	0,009
759,8	0,009
760,2	0,009
760,6	0,01
761,1	0,009
761,5	0,009
761,9	0,009
762,4	0,009
762,8	0,01
763,3	0,009
763,7	0,01
764,1	0,01
764,6	0,01
765	0,01
765,4	0,01
765,9	0,01
766,3	0,01
766,7	0,01
767,2	0,009
767,6	0,009
768	0,009
768,5	0,01
768,9	0,01
769,3	0,009
769,8	0,009
770,2	0,009
770,6	0,01
771,1	0,009
771,5	0,009
771,9	0,009
772,4	0,009
772,8	0,009
773,2	0,009
773,7	0,009
774,1	0,009
774,5	0,009
775	0,009
775,4	0,008
775,8	0,009
776,3	0,008
776,7	0,008
777,1	0,008
777,6	0,008
778	0,008
778,4	0,008
778,9	0,008
779,3	0,008
779,7	0,008
780,2	0,008
780,6	0,009
781	0,009
781,5	0,009
781,9	0,009
782,3	0,009
782,8	0,009
783,2	0,009
783,6	0,008
784,1	0,008
784,5	0,008
784,9	0,008
785,4	0,008
785,8	0,008
786,2	0,008
786,7	0,009
787,1	0,009
787,5	0,009
788	0,009
788,4	0,009
788,8	0,01
789,3	0,01
789,7	0,01
790,1	0,01
790,6	0,01
791	0,009
791,4	0,009
791,9	0,009
792,3	0,009
792,7	0,01
793,2	0,01
793,6	0,01
794	0,01
794,5	0,01
794,9	0,01
795,3	0,01
795,8	0,01
796,2	0,01
796,6	0,01
797,1	0,01
797,5	0,01
797,9	0,01
798,4	0,009
798,8	0,009
799,2	0,009
799,7	0,009
800,1	0,009
800,5	0,009
801	0,009
801,4	0,009
801,8	0,009
802,2	0,009
802,7	0,01
803,1	0,01
803,5	0,009
804	0,009
804,4	0,009
804,8	0,009
805,3	0,009
805,7	0,009
806,1	0,009
806,6	0,009
807	0,009
807,4	0,009
807,9	0,009
808,3	0,009
808,7	0,009
809,2	0,009
809,6	0,009
810	0,009
810,4	0,009
810,9	0,009
811,3	0,009
811,7	0,009
812,2	0,009
812,6	0,009
813	0,008
813,5	0,008
813,9	0,009
814,3	0,009
814,8	0,009
815,2	0,009
815,6	0,009
816,1	0,009
816,5	0,009
816,9	0,008
817,3	0,008
817,8	0,008
818,2	0,008
818,6	0,008
819,1	0,008
819,5	0,008
819,9	0,008
820,4	0,008
820,8	0,008
821,2	0,008
821,7	0,008
822,1	0,008
822,5	0,008
822,9	0,008
823,4	0,008
823,8	0,008
824,2	0,008
824,7	0,009
825,1	0,009
825,5	0,009
826	0,009
826,4	0,009
826,8	0,009
827,3	0,009
827,7	0,009
828,1	0,009
828,5	0,009
829	0,009
829,4	0,009
829,8	0,009
830,3	0,009
830,7	0,009
831,1	0,009
831,6	0,009
832	0,009
832,4	0,009
832,8	0,009
833,3	0,009
833,7	0,008
834,1	0,008
834,6	0,008
835	0,008
835,4	0,008
835,8	0,009
836,3	0,009
836,7	0,009
837,1	0,008
837,6	0,008
838	0,008
838,4	0,008
838,9	0,008
839,3	0,008
839,7	0,008
840,1	0,009
840,6	0,008
841	0,009
841,4	0,009
841,9	0,009
842,3	0,009
842,7	0,008
843,1	0,008
843,6	0,008
844	0,008
844,4	0,009
844,9	0,009
845,3	0,009
845,7	0,009
846,2	0,009
846,6	0,008
847	0,008
847,4	0,008
847,9	0,008
848,3	0,008
848,7	0,008
849,2	0,008
849,6	0,008
850	0,008
850,4	0,008
850,9	0,008
851,3	0,008
851,7	0,009
852,2	0,009
852,6	0,009
853	0,009
853,4	0,009
853,9	0,009
854,3	0,009
854,7	0,008
855,2	0,008
855,6	0,008
856	0,009
856,4	0,009
856,9	0,009
857,3	0,009
857,7	0,009
858,2	0,009
858,6	0,009
859	0,009
859,4	0,009
859,9	0,009
860,3	0,009
860,7	0,009
861,1	0,009
861,6	0,009
862	0,009
862,4	0,009
862,9	0,008
863,3	0,008
863,7	0,009
864,1	0,009
864,6	0,009
865	0,009
865,4	0,009
865,9	0,009
866,3	0,009
866,7	0,009
867,1	0,009
867,6	0,009
868	0,009
868,4	0,009
868,8	0,009
869,3	0,009
869,7	0,009
870,1	0,009
870,6	0,009
871	0,009
871,4	0,009
871,8	0,009
872,3	0,009
872,7	0,009
873,1	0,009
873,5	0,009
874	0,009
874,4	0,009
874,8	0,009
875,3	0,009
875,7	0,008
876,1	0,008
876,5	0,009
877	0,009
877,4	0,009
877,8	0,009
878,2	0,009
878,7	0,009
879,1	0,009
879,5	0,009
879,9	0,009
880,4	0,009
880,8	0,009
881,2	0,009
881,7	0,009
882,1	0,009
882,5	0,01
882,9	0,01
883,4	0,01
883,8	0,01
884,2	0,01
884,6	0,01
885,1	0,009
885,5	0,009
885,9	0,009
886,3	0,008
886,8	0,008
887,2	0,009
887,6	0,009
888	0,009
888,5	0,009
888,9	0,009
889,3	0,01
889,8	0,01
890,2	0,01
890,6	0,01
891	0,01
891,5	0,01
891,9	0,01
892,3	0,01
892,7	0,01
893,2	0,01
893,6	0,01
894	0,009
894,4	0,009
894,9	0,01
895,3	0,009
895,7	0,009
896,1	0,009
896,6	0,009
897	0,009
897,4	0,009
897,8	0,009
898,3	0,009
898,7	0,009
899,1	0,009
899,5	0,009
900	0,009
900,4	0,009
900,8	0,009
901,2	0,009
901,7	0,009
902,1	0,009
902,5	0,009
902,9	0,009
903,4	0,009
903,8	0,009
904,2	0,009
904,6	0,009
905,1	0,009
905,5	0,009
905,9	0,009
906,3	0,009
906,8	0,009
907,2	0,009
907,6	0,009
908	0,01
908,5	0,01
908,9	0,01
909,3	0,01
909,7	0,01
910,2	0,01
910,6	0,01
911	0,01
911,4	0,01
911,9	0,01
912,3	0,01
912,7	0,01
913,1	0,01
913,6	0,01
914	0,01
914,4	0,009
914,8	0,009
915,3	0,009
915,7	0,009
916,1	0,008
916,5	0,008
916,9	0,008
917,4	0,008
917,8	0,007
918,2	0,007
918,6	0,007
919,1	0,007
919,5	0,007
919,9	0,007
920,3	0,007
920,8	0,008
921,2	0,008
921,6	0,009
922	0,009
922,5	0,01
922,9	0,01
923,3	0,01
923,7	0,01
924,2	0,01
924,6	0,009
925	0,009
925,4	0,009
925,8	0,009
926,3	0,009
926,7	0,009
927,1	0,009
927,5	0,009
928	0,009
928,4	0,009
928,8	0,01
929,2	0,009
929,7	0,01
930,1	0,01
930,5	0,01
930,9	0,01
931,3	0,01
931,8	0,01
932,2	0,01
932,6	0,009
933	0,01
933,5	0,01
933,9	0,01
934,3	0,01
934,7	0,01
935,2	0,009
935,6	0,009
936	0,009
936,4	0,009
936,8	0,009
937,3	0,009
937,7	0,009
938,1	0,01
938,5	0,01
939	0,01
939,4	0,01
939,8	0,009
940,2	0,01
940,6	0,009
941,1	0,009
941,5	0,009
941,9	0,009
942,3	0,009
942,8	0,009
943,2	0,009
943,6	0,009
944	0,009
944,4	0,009
944,9	0,009
945,3	0,009
945,7	0,009
946,1	0,009
946,6	0,009
947	0,009
947,4	0,009
947,8	0,009
948,2	0,009
948,7	0,009
949,1	0,009
949,5	0,009
949,9	0,009
950,3	0,009
950,8	0,009
951,2	0,009
951,6	0,009
952	0,009
952,5	0,009
952,9	0,009
953,3	0,009
953,7	0,009
954,1	0,009
954,6	0,009
955	0,009
955,4	0,009
955,8	0,009
956,2	0,009
956,7	0,009
957,1	0,009
957,5	0,008
957,9	0,009
958,3	0,008
958,8	0,008
959,2	0,008
959,6	0,009
960	0,008
960,5	0,008
960,9	0,008
961,3	0,009
961,7	0,009
962,1	0,009
962,6	0,01
963	0,01
963,4	0,01
963,8	0,01
964,2	0,011
964,7	0,011
965,1	0,011
965,5	0,01
965,9	0,01
966,3	0,01
966,8	0,01
967,2	0,009
967,6	0,009
968	0,009
968,4	0,009
968,9	0,009
969,3	0,009
969,7	0,009
970,1	0,009
970,5	0,009
971	0,009
971,4	0,009
971,8	0,008
972,2	0,007
972,6	0,008
973,1	0,007
973,5	0,007
973,9	0,007
974,3	0,008
974,7	0,008
975,2	0,008
975,6	0,008
976	0,009
976,4	0,008
976,8	0,009
977,3	0,008
977,7	0,009
978,1	0,009
978,5	0,009
978,9	0,009
979,4	0,009
979,8	0,009
980,2	0,009
980,6	0,009
981	0,009
981,5	0,009
981,9	0,009
982,3	0,009
982,7	0,009
983,1	0,008
983,6	0,009
984	0,009
984,4	0,009
984,8	0,009
985,2	0,009
985,6	0,009
986,1	0,009
986,5	0,009
986,9	0,009
987,3	0,009
987,7	0,009
988,2	0,01
988,6	0,01
989	0,01
989,4	0,009
989,8	0,009
990,3	0,009
990,7	0,009
991,1	0,008
991,5	0,008
991,9	0,008
992,3	0,008
992,8	0,008
993,2	0,008
993,6	0,007
994	0,008
994,4	0,007
994,9	0,007
995,3	0,007
995,7	0,007
996,1	0,007
996,5	0,008
996,9	0,008
997,4	0,008
997,8	0,009
998,2	0,009
998,6	0,008
999	0,009
999,5	0,009
999,9	0,009
1000,3	0,009
1000,7	0,009
1001,1	0,009
1001,5	0,009
1002	0,009
1002,4	0,009
1002,8	0,009
1003,2	0,01
1003,6	0,009
1004	0,009
1004,5	0,009
1004,9	0,009
1005,3	0,009
1005,7	0,009
1006,1	0,008
1006,6	0,008
1007	0,008
1007,4	0,008
1007,8	0,009
1008,2	0,008
1008,6	0,008
1009,1	0,008
1009,5	0,008
1009,9	0,009
1010,3	0,008
1010,7	0,008
1011,1	0,009
1011,6	0,009
1012	0,009
1012,4	0,009
1012,8	0,009
1013,2	0,009
1013,6	0,01
1014,1	0,01
1014,5	0,009
1014,9	0,01
1015,3	0,009
1015,7	0,009
1016,1	0,01
1016,6	0,01
1017	0,009
1017,4	0,009
1017,8	0,009
1018,2	0,009
1018,6	0,008
1019,1	0,008
1019,5	0,008
1019,9	0,007
1020,3	0,007
1020,7	0,007
1021,1	0,008
1021,6	0,008
1022	0,008
1022,4	0,008
1022,8	0,009
1023,2	0,009
1023,6	0,01
1024,1	0,009
1024,5	0,009
1024,9	0,01
1025,3	0,009
1025,7	0,009
1026,1	0,008
1026,6	0,008
1027	0,008
1027,4	0,009
1027,8	0,009
1028,2	0,009
1028,6	0,009
1029	0,009
1029,5	0,009
1029,9	0,009
1030,3	0,008
1030,7	0,009
1031,1	0,009
1031,5	0,009
1032	0,009
1032,4	0,009
1032,8	0,009
1033,2	0,009
1033,6	0,009
1034	0,008
1034,4	0,008
1034,9	0,008
1035,3	0,008
1035,7	0,008
1036,1	0,008
1036,5	0,008
1036,9	0,009
1037,4	0,009
1037,8	0,009
1038,2	0,009
1038,6	0,009
1039	0,008
1039,4	0,008
1039,8	0,008
1040,3	0,008
1040,7	0,007
1041,1	0,007
1041,5	0,007
1041,9	0,007
1042,3	0,007
1042,7	0,007
1043,2	0,007
1043,6	0,007
1044	0,007
1044,4	0,007
1044,8	0,007
1045,2	0,007
1045,6	0,007
1046,1	0,007
1046,5	0,008
1046,9	0,008
1047,3	0,008
1047,7	0,007
1048,1	0,007
1048,5	0,007
1049	0,007
1049,4	0,006
1049,8	0,006
1050,2	0,007
1050,6	0,008
1051	0,008
1051,4	0,008
1051,9	0,008
1052,3	0,009
1052,7	0,008
1053,1	0,009
1053,5	0,008
1053,9	0,008
1054,3	0,008
1054,8	0,008
1055,2	0,008
1055,6	0,008
1056	0,008
1056,4	0,007
1056,8	0,008
1057,2	0,007
1057,6	0,007
1058,1	0,007
1058,5	0,008
1058,9	0,007
1059,3	0,008
1059,7	0,008
1060,1	0,008
1060,5	0,009
1061	0,009
1061,4	0,008
1061,8	0,008
1062,2	0,008
1062,6	0,008
1063	0,008
1063,4	0,008
1063,8	0,008
1064,3	0,007
1064,7	0,006
1065,1	0,006
1065,5	0,006
1065,9	0,006
1066,3	0,006
1066,7	0,007
1067,1	0,007
1067,6	0,009
1068	0,008
1068,4	0,008
1068,8	0,008
1069,2	0,007
1069,6	0,007
1070	0,007
1070,4	0,007
1070,9	0,008
1071,3	0,007
1071,7	0,007
1072,1	0,007
1072,5	0,007
1072,9	0,007
1073,3	0,006
1073,7	0,006
1074,2	0,007
1074,6	0,007
1075	0,007
1075,4	0,007
1075,8	0,006
1076,2	0,006
1076,6	0,006
1077	0,006
1077,5	0,006
1077,9	0,006
1078,3	0,008
1078,7	0,01
1079,1	0,011
1079,5	0,01
1079,9	0,011
1080,3	0,011
1080,7	0,012
1081,2	0,012
1081,6	0,011
1082	0,009
1082,4	0,011
1082,8	0,01
1083,2	0,011
1083,6	0,01
1084	0,009
1084,5	0,008
1084,9	0,011
1085,3	0,008
1085,7	0,007
1086,1	0,006
1086,5	0,007
1086,9	0,006
1087,3	0,007
1087,7	0,006
1088,2	0,008
1088,6	0,009
1089	0,011
1089,4	0,011
1089,8	0,013
1090,2	0,014
1090,6	0,013
1091	0,011
1091,4	0,011
1091,9	0,007
1092,3	0,008
1092,7	0,009
1093,1	0,009
1093,5	0,004
1093,9	0,007
1094,3	0,004
1094,7	0,006
1095,1	0,004
1095,5	0,003
1096	0,004
1096,4	0,009
1096,8	0,004
1097,2	0,005
1097,6	0,004
1098	0,001
1098,4	0,001
1098,8	0,001
1099,2	0,004
1099,6	0,013
1100,1	0,023
1100,5	0,033
1100,9	0,039
1101,3	0,035
1101,7	0,032
1102,1	0,032
1102,5	0,022
1102,9	0,014
1103,3	-0
1103,7	0,004
1104,2	0,009
1104,6	0,019
1105	0,01
1105,4	0,024
1105,8	0,036
1106,2	0,048
1106,6	0,037
1107	0,048
1107,4	0,031
1107,8	0,083
1108,3	0,291
