Data from Absorbance_224.txt Node
Date: Fri Nov 13 21:25:50 MSK 2020
User: vat
Spectrometer: MAYP114033
Trigger mode: 0
Integration Time (sec): 8,000000E-3
Scans to average: 10
Electric dark correction enabled: true
Nonlinearity correction enabled: false
Boxcar width: 3
XAxis mode: Wavelengths
Number of Pixels in Spectrum: 2068
>>>>>Begin Spectral Data<<<<<
199,4	-0,459
199,9	0,636
200,4	0,425
200,8	0,262
201,3	0,127
201,8	0,149
202,2	0,17
202,7	0,188
203,2	0,164
203,6	0,165
204,1	0,167
204,6	0,171
205	0,166
205,5	0,17
206	0,174
206,4	0,193
206,9	0,182
207,4	0,191
207,8	0,191
208,3	0,202
208,8	0,214
209,2	0,208
209,7	0,21
210,2	0,204
210,6	0,192
211,1	0,191
211,5	0,175
212	0,161
212,5	0,162
212,9	0,17
213,4	0,169
213,9	0,175
214,3	0,171
214,8	0,182
215,3	0,187
215,7	0,172
216,2	0,166
216,7	0,178
217,1	0,193
217,6	0,211
218,1	0,206
218,5	0,203
219	0,248
219,5	0,257
219,9	0,262
220,4	0,25
220,9	0,23
221,3	0,236
221,8	0,23
222,3	0,199
222,7	0,191
223,2	0,187
223,6	0,205
224,1	0,209
224,6	0,206
225	0,214
225,5	0,23
226	0,222
226,4	0,219
226,9	0,199
227,4	0,209
227,8	0,206
228,3	0,217
228,8	0,216
229,2	0,223
229,7	0,225
230,2	0,235
230,6	0,242
231,1	0,255
231,5	0,245
232	0,236
232,5	0,24
232,9	0,228
233,4	0,241
233,9	0,231
234,3	0,24
234,8	0,232
235,3	0,241
235,7	0,25
236,2	0,257
236,7	0,263
237,1	0,266
237,6	0,235
238,1	0,252
238,5	0,251
239	0,247
239,4	0,254
239,9	0,244
240,4	0,26
240,8	0,285
241,3	0,303
241,8	0,324
242,2	0,339
242,7	0,349
243,2	0,354
243,6	0,353
244,1	0,369
244,6	0,371
245	0,376
245,5	0,379
245,9	0,392
246,4	0,403
246,9	0,412
247,3	0,429
247,8	0,438
248,3	0,443
248,7	0,449
249,2	0,463
249,7	0,453
250,1	0,452
250,6	0,445
251	0,457
251,5	0,456
252	0,458
252,4	0,459
252,9	0,468
253,4	0,476
253,8	0,484
254,3	0,49
254,8	0,498
255,2	0,508
255,7	0,517
256,1	0,53
256,6	0,54
257,1	0,553
257,5	0,566
258	0,581
258,5	0,596
258,9	0,61
259,4	0,628
259,9	0,645
260,3	0,661
260,8	0,679
261,2	0,697
261,7	0,714
262,2	0,734
262,6	0,749
263,1	0,77
263,6	0,788
264	0,808
264,5	0,827
264,9	0,846
265,4	0,865
265,9	0,887
266,3	0,904
266,8	0,923
267,3	0,944
267,7	0,962
268,2	0,983
268,7	1,003
269,1	1,024
269,6	1,046
270	1,068
270,5	1,088
271	1,111
271,4	1,131
271,9	1,151
272,4	1,168
272,8	1,188
273,3	1,207
273,7	1,224
274,2	1,244
274,7	1,26
275,1	1,28
275,6	1,295
276,1	1,308
276,5	1,32
277	1,333
277,4	1,344
277,9	1,356
278,4	1,365
278,8	1,378
279,3	1,387
279,8	1,397
280,2	1,406
280,7	1,411
281,1	1,418
281,6	1,421
282,1	1,423
282,5	1,423
283	1,42
283,4	1,421
283,9	1,42
284,4	1,413
284,8	1,408
285,3	1,4
285,8	1,393
286,2	1,384
286,7	1,371
287,1	1,359
287,6	1,349
288,1	1,337
288,5	1,323
289	1,308
289,5	1,292
289,9	1,273
290,4	1,253
290,8	1,234
291,3	1,212
291,8	1,191
292,2	1,169
292,7	1,146
293,1	1,122
293,6	1,098
294,1	1,072
294,5	1,046
295	1,02
295,5	0,991
295,9	0,962
296,4	0,934
296,8	0,906
297,3	0,877
297,8	0,848
298,2	0,819
298,7	0,791
299,1	0,764
299,6	0,737
300,1	0,709
300,5	0,682
301	0,656
301,5	0,63
301,9	0,604
302,4	0,58
302,8	0,555
303,3	0,532
303,8	0,509
304,2	0,487
304,7	0,465
305,1	0,445
305,6	0,425
306,1	0,406
306,5	0,387
307	0,37
307,4	0,353
307,9	0,338
308,4	0,322
308,8	0,308
309,3	0,295
309,8	0,282
310,2	0,269
310,7	0,257
311,1	0,246
311,6	0,236
312,1	0,226
312,5	0,217
313	0,208
313,4	0,2
313,9	0,192
314,4	0,186
314,8	0,178
315,3	0,172
315,7	0,166
316,2	0,16
316,7	0,155
317,1	0,15
317,6	0,145
318	0,141
318,5	0,137
319	0,133
319,4	0,13
319,9	0,127
320,3	0,124
320,8	0,121
321,3	0,119
321,7	0,117
322,2	0,115
322,6	0,113
323,1	0,111
323,6	0,11
324	0,108
324,5	0,107
324,9	0,105
325,4	0,104
325,9	0,103
326,3	0,102
326,8	0,101
327,2	0,1
327,7	0,099
328,2	0,098
328,6	0,097
329,1	0,096
329,5	0,095
330	0,094
330,5	0,094
330,9	0,093
331,4	0,092
331,8	0,092
332,3	0,091
332,8	0,092
333,2	0,091
333,7	0,09
334,1	0,09
334,6	0,09
335,1	0,089
335,5	0,089
336	0,088
336,4	0,089
336,9	0,088
337,4	0,088
337,8	0,087
338,3	0,087
338,7	0,087
339,2	0,087
339,7	0,086
340,1	0,086
340,6	0,085
341	0,085
341,5	0,085
342	0,084
342,4	0,084
342,9	0,083
343,3	0,083
343,8	0,083
344,2	0,082
344,7	0,082
345,2	0,082
345,6	0,082
346,1	0,082
346,5	0,081
347	0,081
347,5	0,081
347,9	0,081
348,4	0,081
348,8	0,081
349,3	0,081
349,8	0,082
350,2	0,081
350,7	0,081
351,1	0,081
351,6	0,081
352	0,08
352,5	0,08
353	0,079
353,4	0,079
353,9	0,079
354,3	0,078
354,8	0,078
355,3	0,078
355,7	0,077
356,2	0,077
356,6	0,077
357,1	0,077
357,5	0,077
358	0,077
358,5	0,077
358,9	0,076
359,4	0,077
359,8	0,077
360,3	0,076
360,8	0,077
361,2	0,076
361,7	0,076
362,1	0,077
362,6	0,076
363	0,076
363,5	0,076
364	0,076
364,4	0,075
364,9	0,074
365,3	0,074
365,8	0,074
366,3	0,073
366,7	0,073
367,2	0,073
367,6	0,073
368,1	0,072
368,5	0,072
369	0,072
369,5	0,072
369,9	0,072
370,4	0,071
370,8	0,071
371,3	0,071
371,7	0,07
372,2	0,07
372,7	0,07
373,1	0,07
373,6	0,07
374	0,069
374,5	0,069
374,9	0,07
375,4	0,069
375,9	0,069
376,3	0,068
376,8	0,068
377,2	0,068
377,7	0,068
378,2	0,067
378,6	0,068
379,1	0,068
379,5	0,068
380	0,067
380,4	0,067
380,9	0,067
381,4	0,067
381,8	0,066
382,3	0,065
382,7	0,065
383,2	0,066
383,6	0,065
384,1	0,066
384,6	0,066
385	0,066
385,5	0,066
385,9	0,065
386,4	0,064
386,8	0,064
387,3	0,064
387,7	0,063
388,2	0,063
388,7	0,063
389,1	0,063
389,6	0,063
390	0,063
390,5	0,063
390,9	0,064
391,4	0,064
391,9	0,063
392,3	0,063
392,8	0,063
393,2	0,063
393,7	0,062
394,1	0,062
394,6	0,062
395,1	0,062
395,5	0,062
396	0,062
396,4	0,062
396,9	0,062
397,3	0,062
397,8	0,062
398,2	0,061
398,7	0,061
399,2	0,061
399,6	0,06
400,1	0,06
400,5	0,06
401	0,06
401,4	0,06
401,9	0,06
402,4	0,06
402,8	0,06
403,3	0,06
403,7	0,06
404,2	0,06
404,6	0,06
405,1	0,059
405,5	0,059
406	0,06
406,5	0,059
406,9	0,059
407,4	0,059
407,8	0,059
408,3	0,058
408,7	0,058
409,2	0,058
409,6	0,058
410,1	0,058
410,6	0,058
411	0,058
411,5	0,058
411,9	0,058
412,4	0,058
412,8	0,058
413,3	0,057
413,7	0,057
414,2	0,057
414,7	0,057
415,1	0,056
415,6	0,057
416	0,057
416,5	0,057
416,9	0,056
417,4	0,056
417,8	0,056
418,3	0,057
418,8	0,056
419,2	0,056
419,7	0,056
420,1	0,057
420,6	0,056
421	0,056
421,5	0,055
421,9	0,055
422,4	0,055
422,8	0,055
423,3	0,055
423,8	0,055
424,2	0,055
424,7	0,055
425,1	0,055
425,6	0,055
426	0,054
426,5	0,054
426,9	0,054
427,4	0,054
427,9	0,054
428,3	0,054
428,8	0,053
429,2	0,053
429,7	0,053
430,1	0,053
430,6	0,053
431	0,053
431,5	0,053
431,9	0,053
432,4	0,054
432,8	0,054
433,3	0,054
433,8	0,054
434,2	0,053
434,7	0,053
435,1	0,053
435,6	0,053
436	0,053
436,5	0,053
436,9	0,054
437,4	0,054
437,8	0,054
438,3	0,054
438,8	0,053
439,2	0,053
439,7	0,052
440,1	0,052
440,6	0,052
441	0,051
441,5	0,051
441,9	0,051
442,4	0,051
442,8	0,051
443,3	0,051
443,7	0,052
444,2	0,052
444,7	0,052
445,1	0,053
445,6	0,052
446	0,052
446,5	0,052
446,9	0,052
447,4	0,051
447,8	0,051
448,3	0,051
448,7	0,051
449,2	0,051
449,6	0,051
450,1	0,05
450,6	0,05
451	0,051
451,5	0,051
451,9	0,05
452,4	0,051
452,8	0,05
453,3	0,051
453,7	0,05
454,2	0,05
454,6	0,05
455,1	0,049
455,5	0,049
456	0,049
456,4	0,049
456,9	0,049
457,3	0,049
457,8	0,049
458,3	0,049
458,7	0,049
459,2	0,049
459,6	0,049
460,1	0,049
460,5	0,049
461	0,049
461,4	0,049
461,9	0,049
462,3	0,049
462,8	0,049
463,2	0,049
463,7	0,049
464,1	0,048
464,6	0,048
465	0,048
465,5	0,048
466	0,048
466,4	0,047
466,9	0,047
467,3	0,047
467,8	0,046
468,2	0,046
468,7	0,046
469,1	0,046
469,6	0,046
470	0,046
470,5	0,046
470,9	0,047
471,4	0,047
471,8	0,047
472,3	0,047
472,7	0,047
473,2	0,047
473,6	0,046
474,1	0,046
474,5	0,046
475	0,046
475,4	0,046
475,9	0,046
476,4	0,046
476,8	0,046
477,3	0,046
477,7	0,046
478,2	0,046
478,6	0,046
479,1	0,046
479,5	0,045
480	0,045
480,4	0,045
480,9	0,045
481,3	0,045
481,8	0,045
482,2	0,046
482,7	0,046
483,1	0,047
483,6	0,048
484	0,048
484,5	0,048
484,9	0,046
485,4	0,045
485,8	0,045
486,3	0,044
486,7	0,043
487,2	0,042
487,6	0,041
488,1	0,042
488,5	0,043
489	0,044
489,4	0,044
489,9	0,044
490,4	0,044
490,8	0,044
491,3	0,044
491,7	0,044
492,2	0,043
492,6	0,043
493,1	0,043
493,5	0,042
494	0,043
494,4	0,043
494,9	0,043
495,3	0,043
495,8	0,044
496,2	0,043
496,7	0,044
497,1	0,044
497,6	0,043
498	0,043
498,5	0,042
498,9	0,042
499,4	0,042
499,8	0,042
500,3	0,042
500,7	0,041
501,2	0,042
501,6	0,042
502,1	0,042
502,5	0,043
503	0,042
503,4	0,042
503,9	0,043
504,3	0,042
504,8	0,042
505,2	0,042
505,7	0,041
506,1	0,041
506,6	0,041
507	0,04
507,5	0,041
507,9	0,041
508,4	0,041
508,8	0,04
509,3	0,041
509,7	0,041
510,2	0,042
510,6	0,042
511,1	0,042
511,5	0,042
512	0,042
512,4	0,042
512,9	0,042
513,3	0,041
513,8	0,041
514,2	0,041
514,7	0,041
515,1	0,041
515,6	0,041
516	0,04
516,5	0,04
516,9	0,04
517,4	0,04
517,8	0,041
518,3	0,04
518,7	0,04
519,2	0,04
519,6	0,04
520,1	0,041
520,5	0,04
521	0,04
521,4	0,04
521,9	0,04
522,3	0,04
522,8	0,04
523,2	0,04
523,7	0,041
524,1	0,041
524,6	0,041
525	0,041
525,5	0,04
525,9	0,04
526,4	0,039
526,8	0,039
527,3	0,039
527,7	0,039
528,2	0,04
528,6	0,04
529,1	0,04
529,5	0,04
530	0,04
530,4	0,04
530,9	0,039
531,3	0,039
531,8	0,039
532,2	0,038
532,6	0,038
533,1	0,038
533,5	0,038
534	0,038
534,4	0,038
534,9	0,038
535,3	0,038
535,8	0,039
536,2	0,039
536,7	0,039
537,1	0,038
537,6	0,037
538	0,038
538,5	0,038
538,9	0,038
539,4	0,037
539,8	0,037
540,3	0,037
540,7	0,038
541,2	0,037
541,6	0,037
542,1	0,037
542,5	0,036
543	0,036
543,4	0,036
543,9	0,036
544,3	0,035
544,8	0,035
545,2	0,035
545,7	0,036
546,1	0,036
546,5	0,036
547	0,036
547,4	0,036
547,9	0,036
548,3	0,036
548,8	0,036
549,2	0,036
549,7	0,035
550,1	0,035
550,6	0,035
551	0,036
551,5	0,036
551,9	0,036
552,4	0,036
552,8	0,036
553,3	0,036
553,7	0,036
554,2	0,036
554,6	0,036
555,1	0,035
555,5	0,035
555,9	0,035
556,4	0,035
556,8	0,035
557,3	0,035
557,7	0,035
558,2	0,035
558,6	0,034
559,1	0,034
559,5	0,034
560	0,034
560,4	0,034
560,9	0,033
561,3	0,034
561,8	0,034
562,2	0,033
562,7	0,033
563,1	0,033
563,6	0,033
564	0,033
564,4	0,033
564,9	0,034
565,3	0,034
565,8	0,034
566,2	0,034
566,7	0,034
567,1	0,035
567,6	0,035
568	0,035
568,5	0,035
568,9	0,035
569,4	0,034
569,8	0,034
570,3	0,034
570,7	0,033
571,1	0,032
571,6	0,033
572	0,033
572,5	0,033
572,9	0,033
573,4	0,033
573,8	0,033
574,3	0,032
574,7	0,032
575,2	0,032
575,6	0,032
576,1	0,032
576,5	0,032
576,9	0,032
577,4	0,032
577,8	0,032
578,3	0,032
578,7	0,032
579,2	0,032
579,6	0,033
580,1	0,033
580,5	0,032
581	0,032
581,4	0,031
581,9	0,031
582,3	0,03
582,7	0,03
583,2	0,03
583,6	0,03
584,1	0,031
584,5	0,031
585	0,031
585,4	0,031
585,9	0,031
586,3	0,03
586,8	0,03
587,2	0,03
587,6	0,031
588,1	0,031
588,5	0,03
589	0,03
589,4	0,03
589,9	0,031
590,3	0,031
590,8	0,031
591,2	0,031
591,7	0,031
592,1	0,031
592,5	0,031
593	0,031
593,4	0,031
593,9	0,031
594,3	0,03
594,8	0,03
595,2	0,03
595,7	0,03
596,1	0,029
596,6	0,029
597	0,029
597,4	0,029
597,9	0,029
598,3	0,029
598,8	0,029
599,2	0,029
599,7	0,029
600,1	0,029
600,6	0,029
601	0,029
601,4	0,029
601,9	0,029
602,3	0,029
602,8	0,029
603,2	0,029
603,7	0,029
604,1	0,029
604,6	0,028
605	0,028
605,4	0,029
605,9	0,029
606,3	0,029
606,8	0,029
607,2	0,029
607,7	0,029
608,1	0,029
608,6	0,029
609	0,029
609,4	0,029
609,9	0,029
610,3	0,029
610,8	0,029
611,2	0,029
611,7	0,029
612,1	0,029
612,6	0,029
613	0,029
613,4	0,029
613,9	0,029
614,3	0,028
614,8	0,028
615,2	0,028
615,7	0,028
616,1	0,028
616,6	0,028
617	0,028
617,4	0,028
617,9	0,029
618,3	0,029
618,8	0,028
619,2	0,028
619,7	0,028
620,1	0,028
620,5	0,028
621	0,028
621,4	0,027
621,9	0,027
622,3	0,027
622,8	0,027
623,2	0,027
623,6	0,026
624,1	0,027
624,5	0,027
625	0,027
625,4	0,027
625,9	0,027
626,3	0,027
626,8	0,027
627,2	0,027
627,6	0,027
628,1	0,027
628,5	0,027
629	0,027
629,4	0,027
629,9	0,027
630,3	0,027
630,7	0,027
631,2	0,027
631,6	0,027
632,1	0,027
632,5	0,027
633	0,027
633,4	0,027
633,8	0,027
634,3	0,027
634,7	0,027
635,2	0,027
635,6	0,027
636,1	0,027
636,5	0,027
636,9	0,027
637,4	0,027
637,8	0,027
638,3	0,027
638,7	0,027
639,2	0,027
639,6	0,027
640	0,027
640,5	0,027
640,9	0,027
641,4	0,027
641,8	0,027
642,2	0,027
642,7	0,026
643,1	0,026
643,6	0,026
644	0,026
644,5	0,026
644,9	0,026
645,3	0,026
645,8	0,026
646,2	0,025
646,7	0,025
647,1	0,025
647,6	0,025
648	0,025
648,4	0,025
648,9	0,026
649,3	0,026
649,8	0,027
650,2	0,027
650,6	0,027
651,1	0,027
651,5	0,027
652	0,027
652,4	0,027
652,9	0,027
653,3	0,029
653,7	0,036
654,2	0,023
654,6	0,016
655,1	0,012
655,5	0,01
655,9	0,009
656,4	0,008
656,8	0,004
657,3	0,006
657,7	0,009
658,2	0,014
658,6	0,022
659	0,024
659,5	0,025
659,9	0,025
660,4	0,025
660,8	0,025
661,2	0,025
661,7	0,025
662,1	0,025
662,6	0,025
663	0,025
663,4	0,024
663,9	0,024
664,3	0,024
664,8	0,025
665,2	0,025
665,6	0,025
666,1	0,026
666,5	0,026
667	0,026
667,4	0,026
667,9	0,026
668,3	0,026
668,7	0,026
669,2	0,025
669,6	0,025
670,1	0,025
670,5	0,025
670,9	0,025
671,4	0,025
671,8	0,024
672,3	0,024
672,7	0,024
673,1	0,024
673,6	0,024
674	0,024
674,5	0,024
674,9	0,024
675,3	0,024
675,8	0,024
676,2	0,025
676,7	0,025
677,1	0,025
677,5	0,025
678	0,025
678,4	0,025
678,9	0,025
679,3	0,025
679,7	0,025
680,2	0,025
680,6	0,025
681,1	0,025
681,5	0,024
681,9	0,025
682,4	0,024
682,8	0,024
683,3	0,024
683,7	0,024
684,1	0,024
684,6	0,024
685	0,024
685,5	0,024
685,9	0,024
686,3	0,024
686,8	0,023
687,2	0,023
687,7	0,024
688,1	0,024
688,5	0,024
689	0,024
689,4	0,024
689,9	0,024
690,3	0,025
690,7	0,024
691,2	0,024
691,6	0,024
692	0,024
692,5	0,024
692,9	0,023
693,4	0,023
693,8	0,023
694,2	0,023
694,7	0,023
695,1	0,023
695,6	0,023
696	0,023
696,4	0,022
696,9	0,022
697,3	0,022
697,8	0,022
698,2	0,022
698,6	0,022
699,1	0,022
699,5	0,022
699,9	0,022
700,4	0,022
700,8	0,023
701,3	0,023
701,7	0,023
702,1	0,023
702,6	0,023
703	0,023
703,5	0,023
703,9	0,023
704,3	0,023
704,8	0,023
705,2	0,023
705,6	0,023
706,1	0,023
706,5	0,023
707	0,023
707,4	0,023
707,8	0,022
708,3	0,022
708,7	0,022
709,2	0,023
709,6	0,023
710	0,023
710,5	0,023
710,9	0,024
711,3	0,024
711,8	0,023
712,2	0,023
712,7	0,023
713,1	0,024
713,5	0,023
714	0,023
714,4	0,023
714,8	0,023
715,3	0,023
715,7	0,023
716,2	0,023
716,6	0,023
717	0,023
717,5	0,023
717,9	0,023
718,3	0,022
718,8	0,022
719,2	0,022
719,7	0,022
720,1	0,022
720,5	0,022
721	0,022
721,4	0,022
721,8	0,022
722,3	0,022
722,7	0,022
723,2	0,022
723,6	0,022
724	0,022
724,5	0,023
724,9	0,023
725,3	0,023
725,8	0,023
726,2	0,023
726,7	0,023
727,1	0,022
727,5	0,022
728	0,022
728,4	0,022
728,8	0,022
729,3	0,022
729,7	0,022
730,1	0,022
730,6	0,022
731	0,022
731,5	0,022
731,9	0,022
732,3	0,022
732,8	0,022
733,2	0,022
733,6	0,022
734,1	0,022
734,5	0,022
734,9	0,022
735,4	0,022
735,8	0,022
736,3	0,022
736,7	0,022
737,1	0,022
737,6	0,022
738	0,021
738,4	0,021
738,9	0,021
739,3	0,021
739,7	0,021
740,2	0,021
740,6	0,021
741,1	0,021
741,5	0,021
741,9	0,021
742,4	0,021
742,8	0,021
743,2	0,021
743,7	0,021
744,1	0,021
744,5	0,021
745	0,021
745,4	0,021
745,8	0,021
746,3	0,021
746,7	0,021
747,2	0,021
747,6	0,021
748	0,021
748,5	0,021
748,9	0,021
749,3	0,021
749,8	0,021
750,2	0,021
750,6	0,021
751,1	0,021
751,5	0,021
751,9	0,021
752,4	0,021
752,8	0,021
753,3	0,021
753,7	0,021
754,1	0,021
754,6	0,021
755	0,021
755,4	0,021
755,9	0,022
756,3	0,022
756,7	0,022
757,2	0,022
757,6	0,022
758	0,022
758,5	0,022
758,9	0,022
759,3	0,022
759,8	0,022
760,2	0,021
760,6	0,021
761,1	0,021
761,5	0,022
761,9	0,022
762,4	0,022
762,8	0,022
763,3	0,022
763,7	0,022
764,1	0,022
764,6	0,021
765	0,021
765,4	0,02
765,9	0,02
766,3	0,019
766,7	0,019
767,2	0,019
767,6	0,019
768	0,02
768,5	0,02
768,9	0,02
769,3	0,02
769,8	0,02
770,2	0,02
770,6	0,021
771,1	0,021
771,5	0,021
771,9	0,021
772,4	0,022
772,8	0,022
773,2	0,022
773,7	0,022
774,1	0,022
774,5	0,022
775	0,022
775,4	0,022
775,8	0,022
776,3	0,022
776,7	0,023
777,1	0,022
777,6	0,022
778	0,023
778,4	0,022
778,9	0,022
779,3	0,022
779,7	0,022
780,2	0,021
780,6	0,021
781	0,021
781,5	0,021
781,9	0,022
782,3	0,022
782,8	0,022
783,2	0,022
783,6	0,022
784,1	0,022
784,5	0,022
784,9	0,022
785,4	0,021
785,8	0,021
786,2	0,021
786,7	0,021
787,1	0,02
787,5	0,02
788	0,02
788,4	0,02
788,8	0,02
789,3	0,019
789,7	0,02
790,1	0,02
790,6	0,02
791	0,02
791,4	0,02
791,9	0,021
792,3	0,021
792,7	0,021
793,2	0,02
793,6	0,02
794	0,02
794,5	0,02
794,9	0,02
795,3	0,02
795,8	0,02
796,2	0,021
796,6	0,021
797,1	0,021
797,5	0,022
797,9	0,021
798,4	0,021
798,8	0,021
799,2	0,021
799,7	0,021
800,1	0,021
800,5	0,021
801	0,02
801,4	0,02
801,8	0,02
802,2	0,02
802,7	0,02
803,1	0,02
803,5	0,02
804	0,021
804,4	0,02
804,8	0,021
805,3	0,021
805,7	0,021
806,1	0,02
806,6	0,02
807	0,02
807,4	0,02
807,9	0,02
808,3	0,02
808,7	0,02
809,2	0,021
809,6	0,02
810	0,02
810,4	0,02
810,9	0,02
811,3	0,02
811,7	0,02
812,2	0,02
812,6	0,02
813	0,02
813,5	0,02
813,9	0,02
814,3	0,02
814,8	0,019
815,2	0,019
815,6	0,019
816,1	0,019
816,5	0,019
816,9	0,019
817,3	0,019
817,8	0,019
818,2	0,019
818,6	0,019
819,1	0,019
819,5	0,019
819,9	0,019
820,4	0,019
820,8	0,02
821,2	0,02
821,7	0,02
822,1	0,02
822,5	0,021
822,9	0,02
823,4	0,02
823,8	0,02
824,2	0,02
824,7	0,019
825,1	0,019
825,5	0,019
826	0,019
826,4	0,019
826,8	0,018
827,3	0,018
827,7	0,019
828,1	0,019
828,5	0,019
829	0,019
829,4	0,019
829,8	0,019
830,3	0,02
830,7	0,02
831,1	0,02
831,6	0,02
832	0,02
832,4	0,019
832,8	0,019
833,3	0,019
833,7	0,019
834,1	0,019
834,6	0,019
835	0,019
835,4	0,019
835,8	0,019
836,3	0,019
836,7	0,02
837,1	0,02
837,6	0,02
838	0,02
838,4	0,02
838,9	0,02
839,3	0,02
839,7	0,02
840,1	0,019
840,6	0,019
841	0,019
841,4	0,018
841,9	0,018
842,3	0,018
842,7	0,019
843,1	0,019
843,6	0,019
844	0,019
844,4	0,019
844,9	0,019
845,3	0,019
845,7	0,019
846,2	0,019
846,6	0,019
847	0,02
847,4	0,02
847,9	0,02
848,3	0,02
848,7	0,02
849,2	0,02
849,6	0,02
850	0,02
850,4	0,02
850,9	0,02
851,3	0,021
851,7	0,021
852,2	0,021
852,6	0,021
853	0,021
853,4	0,021
853,9	0,02
854,3	0,02
854,7	0,02
855,2	0,019
855,6	0,019
856	0,019
856,4	0,019
856,9	0,019
857,3	0,019
857,7	0,019
858,2	0,019
858,6	0,02
859	0,02
859,4	0,02
859,9	0,02
860,3	0,02
860,7	0,02
861,1	0,019
861,6	0,019
862	0,02
862,4	0,02
862,9	0,02
863,3	0,02
863,7	0,02
864,1	0,02
864,6	0,02
865	0,019
865,4	0,019
865,9	0,019
866,3	0,018
866,7	0,018
867,1	0,018
867,6	0,017
868	0,017
868,4	0,018
868,8	0,018
869,3	0,018
869,7	0,018
870,1	0,018
870,6	0,019
871	0,019
871,4	0,018
871,8	0,018
872,3	0,018
872,7	0,018
873,1	0,018
873,5	0,018
874	0,018
874,4	0,018
874,8	0,018
875,3	0,018
875,7	0,018
876,1	0,018
876,5	0,018
877	0,018
877,4	0,018
877,8	0,019
878,2	0,019
878,7	0,019
879,1	0,019
879,5	0,019
879,9	0,019
880,4	0,019
880,8	0,018
881,2	0,019
881,7	0,019
882,1	0,019
882,5	0,019
882,9	0,019
883,4	0,019
883,8	0,019
884,2	0,019
884,6	0,019
885,1	0,019
885,5	0,018
885,9	0,018
886,3	0,018
886,8	0,018
887,2	0,018
887,6	0,018
888	0,018
888,5	0,018
888,9	0,018
889,3	0,018
889,8	0,019
890,2	0,019
890,6	0,018
891	0,018
891,5	0,018
891,9	0,018
892,3	0,018
892,7	0,019
893,2	0,018
893,6	0,019
894	0,019
894,4	0,019
894,9	0,019
895,3	0,019
895,7	0,019
896,1	0,019
896,6	0,019
897	0,019
897,4	0,019
897,8	0,019
898,3	0,019
898,7	0,019
899,1	0,018
899,5	0,019
900	0,019
900,4	0,018
900,8	0,018
901,2	0,018
901,7	0,018
902,1	0,017
902,5	0,017
902,9	0,017
903,4	0,017
903,8	0,016
904,2	0,016
904,6	0,017
905,1	0,017
905,5	0,017
905,9	0,018
906,3	0,018
906,8	0,019
907,2	0,018
907,6	0,018
908	0,018
908,5	0,018
908,9	0,018
909,3	0,018
909,7	0,018
910,2	0,018
910,6	0,019
911	0,019
911,4	0,018
911,9	0,018
912,3	0,018
912,7	0,018
913,1	0,018
913,6	0,019
914	0,019
914,4	0,019
914,8	0,019
915,3	0,019
915,7	0,019
916,1	0,019
916,5	0,019
916,9	0,018
917,4	0,018
917,8	0,018
918,2	0,018
918,6	0,018
919,1	0,018
919,5	0,018
919,9	0,018
920,3	0,018
920,8	0,018
921,2	0,018
921,6	0,017
922	0,017
922,5	0,017
922,9	0,017
923,3	0,017
923,7	0,017
924,2	0,017
924,6	0,017
925	0,018
925,4	0,018
925,8	0,018
926,3	0,018
926,7	0,018
927,1	0,019
927,5	0,019
928	0,018
928,4	0,018
928,8	0,018
929,2	0,018
929,7	0,018
930,1	0,018
930,5	0,017
930,9	0,017
931,3	0,017
931,8	0,017
932,2	0,016
932,6	0,016
933	0,016
933,5	0,016
933,9	0,016
934,3	0,016
934,7	0,016
935,2	0,016
935,6	0,016
936	0,016
936,4	0,016
936,8	0,016
937,3	0,016
937,7	0,016
938,1	0,016
938,5	0,015
939	0,016
939,4	0,016
939,8	0,016
940,2	0,016
940,6	0,016
941,1	0,017
941,5	0,018
941,9	0,018
942,3	0,018
942,8	0,018
943,2	0,018
943,6	0,018
944	0,018
944,4	0,018
944,9	0,018
945,3	0,018
945,7	0,018
946,1	0,018
946,6	0,019
947	0,019
947,4	0,019
947,8	0,019
948,2	0,019
948,7	0,019
949,1	0,018
949,5	0,018
949,9	0,018
950,3	0,018
950,8	0,018
951,2	0,019
951,6	0,019
952	0,02
952,5	0,019
952,9	0,019
953,3	0,019
953,7	0,02
954,1	0,019
954,6	0,019
955	0,019
955,4	0,019
955,8	0,02
956,2	0,019
956,7	0,019
957,1	0,019
957,5	0,018
957,9	0,018
958,3	0,018
958,8	0,017
959,2	0,017
959,6	0,018
960	0,017
960,5	0,018
960,9	0,018
961,3	0,018
961,7	0,018
962,1	0,018
962,6	0,018
963	0,018
963,4	0,018
963,8	0,018
964,2	0,018
964,7	0,018
965,1	0,017
965,5	0,017
965,9	0,018
966,3	0,018
966,8	0,018
967,2	0,019
967,6	0,019
968	0,02
968,4	0,02
968,9	0,02
969,3	0,019
969,7	0,02
970,1	0,02
970,5	0,019
971	0,02
971,4	0,02
971,8	0,02
972,2	0,02
972,6	0,02
973,1	0,02
973,5	0,02
973,9	0,02
974,3	0,02
974,7	0,02
975,2	0,019
975,6	0,019
976	0,019
976,4	0,019
976,8	0,019
977,3	0,019
977,7	0,019
978,1	0,018
978,5	0,018
978,9	0,018
979,4	0,017
979,8	0,018
980,2	0,018
980,6	0,018
981	0,018
981,5	0,018
981,9	0,018
982,3	0,018
982,7	0,018
983,1	0,018
983,6	0,018
984	0,018
984,4	0,018
984,8	0,018
985,2	0,018
985,6	0,018
986,1	0,018
986,5	0,018
986,9	0,019
987,3	0,019
987,7	0,019
988,2	0,018
988,6	0,018
989	0,017
989,4	0,017
989,8	0,017
990,3	0,017
990,7	0,017
991,1	0,017
991,5	0,018
991,9	0,018
992,3	0,018
992,8	0,018
993,2	0,018
993,6	0,018
994	0,018
994,4	0,018
994,9	0,018
995,3	0,018
995,7	0,018
996,1	0,017
996,5	0,018
996,9	0,018
997,4	0,018
997,8	0,018
998,2	0,019
998,6	0,018
999	0,018
999,5	0,017
999,9	0,016
1000,3	0,016
1000,7	0,015
1001,1	0,015
1001,5	0,015
1002	0,016
1002,4	0,016
1002,8	0,016
1003,2	0,017
1003,6	0,017
1004	0,018
1004,5	0,018
1004,9	0,018
1005,3	0,018
1005,7	0,018
1006,1	0,017
1006,6	0,017
1007	0,018
1007,4	0,018
1007,8	0,017
1008,2	0,017
1008,6	0,016
1009,1	0,017
1009,5	0,017
1009,9	0,016
1010,3	0,017
1010,7	0,016
1011,1	0,017
1011,6	0,018
1012	0,017
1012,4	0,017
1012,8	0,018
1013,2	0,017
1013,6	0,018
1014,1	0,018
1014,5	0,018
1014,9	0,018
1015,3	0,018
1015,7	0,018
1016,1	0,018
1016,6	0,018
1017	0,018
1017,4	0,017
1017,8	0,017
1018,2	0,016
1018,6	0,016
1019,1	0,016
1019,5	0,016
1019,9	0,016
1020,3	0,016
1020,7	0,016
1021,1	0,017
1021,6	0,017
1022	0,016
1022,4	0,016
1022,8	0,017
1023,2	0,017
1023,6	0,016
1024,1	0,016
1024,5	0,016
1024,9	0,017
1025,3	0,016
1025,7	0,016
1026,1	0,016
1026,6	0,016
1027	0,016
1027,4	0,016
1027,8	0,016
1028,2	0,016
1028,6	0,017
1029	0,017
1029,5	0,017
1029,9	0,017
1030,3	0,017
1030,7	0,017
1031,1	0,017
1031,5	0,017
1032	0,017
1032,4	0,017
1032,8	0,017
1033,2	0,017
1033,6	0,017
1034	0,018
1034,4	0,018
1034,9	0,018
1035,3	0,018
1035,7	0,019
1036,1	0,019
1036,5	0,019
1036,9	0,02
1037,4	0,02
1037,8	0,02
1038,2	0,02
1038,6	0,02
1039	0,02
1039,4	0,02
1039,8	0,02
1040,3	0,02
1040,7	0,02
1041,1	0,02
1041,5	0,02
1041,9	0,021
1042,3	0,02
1042,7	0,02
1043,2	0,02
1043,6	0,02
1044	0,02
1044,4	0,019
1044,8	0,018
1045,2	0,019
1045,6	0,02
1046,1	0,019
1046,5	0,019
1046,9	0,019
1047,3	0,019
1047,7	0,02
1048,1	0,019
1048,5	0,019
1049	0,02
1049,4	0,021
1049,8	0,02
1050,2	0,02
1050,6	0,02
1051	0,02
1051,4	0,02
1051,9	0,021
1052,3	0,021
1052,7	0,022
1053,1	0,023
1053,5	0,023
1053,9	0,023
1054,3	0,023
1054,8	0,021
1055,2	0,021
1055,6	0,021
1056	0,021
1056,4	0,021
1056,8	0,021
1057,2	0,022
1057,6	0,023
1058,1	0,023
1058,5	0,023
1058,9	0,023
1059,3	0,023
1059,7	0,023
1060,1	0,022
1060,5	0,023
1061	0,022
1061,4	0,023
1061,8	0,023
1062,2	0,022
1062,6	0,022
1063	0,021
1063,4	0,021
1063,8	0,022
1064,3	0,022
1064,7	0,021
1065,1	0,022
1065,5	0,021
1065,9	0,022
1066,3	0,022
1066,7	0,021
1067,1	0,02
1067,6	0,02
1068	0,02
1068,4	0,021
1068,8	0,02
1069,2	0,02
1069,6	0,02
1070	0,021
1070,4	0,021
1070,9	0,022
1071,3	0,021
1071,7	0,022
1072,1	0,021
1072,5	0,022
1072,9	0,022
1073,3	0,022
1073,7	0,021
1074,2	0,022
1074,6	0,022
1075	0,023
1075,4	0,022
1075,8	0,023
1076,2	0,023
1076,6	0,023
1077	0,024
1077,5	0,023
1077,9	0,022
1078,3	0,022
1078,7	0,023
1079,1	0,023
1079,5	0,023
1079,9	0,023
1080,3	0,023
1080,7	0,022
1081,2	0,022
1081,6	0,022
1082	0,023
1082,4	0,023
1082,8	0,022
1083,2	0,023
1083,6	0,024
1084	0,024
1084,5	0,024
1084,9	0,021
1085,3	0,021
1085,7	0,024
1086,1	0,023
1086,5	0,025
1086,9	0,025
1087,3	0,026
1087,7	0,028
1088,2	0,026
1088,6	0,024
1089	0,025
1089,4	0,026
1089,8	0,027
1090,2	0,026
1090,6	0,029
1091	0,031
1091,4	0,034
1091,9	0,033
1092,3	0,03
1092,7	0,03
1093,1	0,038
1093,5	0,037
1093,9	0,043
1094,3	0,041
1094,7	0,045
1095,1	0,051
1095,5	0,056
1096	0,052
1096,4	0,057
1096,8	0,056
1097,2	0,064
1097,6	0,055
1098	0,052
1098,4	0,055
1098,8	0,054
1099,2	0,053
1099,6	0,056
1100,1	0,052
1100,5	0,064
1100,9	0,066
1101,3	0,062
1101,7	0,068
1102,1	0,067
1102,5	0,062
1102,9	0,068
1103,3	0,072
1103,7	0,076
1104,2	0,073
1104,6	0,068
1105	0,071
1105,4	0,081
1105,8	0,09
1106,2	0,083
1106,6	0,101
1107	0,123
1107,4	0,168
1107,8	0,268
1108,3	-1,183
