Data from Absorbance_129.txt Node
Date: Fri Nov 13 19:11:47 MSK 2020
User: vat
Spectrometer: MAYP114033
Trigger mode: 0
Integration Time (sec): 8,000000E-3
Scans to average: 10
Electric dark correction enabled: true
Nonlinearity correction enabled: false
Boxcar width: 3
XAxis mode: Wavelengths
Number of Pixels in Spectrum: 2068
>>>>>Begin Spectral Data<<<<<
199,4	-0
199,9	0,484
200,4	0,149
200,8	0,099
201,3	0,044
201,8	0,025
202,2	0,02
202,7	0,012
203,2	0,004
203,6	0,015
204,1	0,014
204,6	0,019
205	0,022
205,5	0,032
206	0,028
206,4	0,023
206,9	0,013
207,4	0,014
207,8	0,025
208,3	0,018
208,8	0,011
209,2	0,019
209,7	0,015
210,2	0,011
210,6	0,003
211,1	-0,007
211,5	-0,01
212	-0,028
212,5	-0,024
212,9	-0,014
213,4	-0,014
213,9	-0,019
214,3	-0,017
214,8	-0,014
215,3	-0
215,7	-0,006
216,2	-0,013
216,7	-0,014
217,1	0
217,6	-0,009
218,1	-0,019
218,5	-0,018
219	-0,022
219,5	-0,022
219,9	-0,015
220,4	-0,018
220,9	-0,003
221,3	0,004
221,8	-0,003
222,3	0,005
222,7	0,02
223,2	0,023
223,6	0,021
224,1	0,011
224,6	0,024
225	0,037
225,5	0,034
226	0,026
226,4	0,021
226,9	0,015
227,4	0,008
227,8	0,004
228,3	-0,002
228,8	0,006
229,2	0
229,7	0,007
230,2	0,007
230,6	0,006
231,1	0,02
231,5	0,011
232	0,006
232,5	0,002
232,9	0,005
233,4	0,019
233,9	0,011
234,3	-0,003
234,8	0,008
235,3	0,01
235,7	0,017
236,2	0,015
236,7	0,012
237,1	0,025
237,6	0,024
238,1	0,028
238,5	0,028
239	0,029
239,4	0,025
239,9	0,029
240,4	0,031
240,8	0,03
241,3	0,023
241,8	0,023
242,2	0,015
242,7	0,011
243,2	0,006
243,6	0,002
244,1	0,004
244,6	0,01
245	0,006
245,5	0,02
245,9	0,027
246,4	0,028
246,9	0,036
247,3	0,028
247,8	0,029
248,3	0,037
248,7	0,04
249,2	0,051
249,7	0,058
250,1	0,057
250,6	0,061
251	0,061
251,5	0,06
252	0,058
252,4	0,057
252,9	0,057
253,4	0,059
253,8	0,061
254,3	0,063
254,8	0,064
255,2	0,065
255,7	0,066
256,1	0,066
256,6	0,066
257,1	0,066
257,5	0,067
258	0,069
258,5	0,069
258,9	0,071
259,4	0,073
259,9	0,075
260,3	0,078
260,8	0,08
261,2	0,082
261,7	0,086
262,2	0,088
262,6	0,091
263,1	0,094
263,6	0,096
264	0,098
264,5	0,101
264,9	0,103
265,4	0,105
265,9	0,108
266,3	0,11
266,8	0,113
267,3	0,115
267,7	0,118
268,2	0,121
268,7	0,123
269,1	0,126
269,6	0,13
270	0,134
270,5	0,136
271	0,139
271,4	0,14
271,9	0,143
272,4	0,145
272,8	0,147
273,3	0,148
273,7	0,15
274,2	0,154
274,7	0,156
275,1	0,159
275,6	0,161
276,1	0,163
276,5	0,165
277	0,168
277,4	0,169
277,9	0,171
278,4	0,172
278,8	0,173
279,3	0,174
279,8	0,175
280,2	0,177
280,7	0,177
281,1	0,177
281,6	0,178
282,1	0,178
282,5	0,178
283	0,178
283,4	0,178
283,9	0,178
284,4	0,177
284,8	0,177
285,3	0,176
285,8	0,176
286,2	0,175
286,7	0,174
287,1	0,173
287,6	0,172
288,1	0,17
288,5	0,169
289	0,167
289,5	0,165
289,9	0,162
290,4	0,161
290,8	0,158
291,3	0,156
291,8	0,153
292,2	0,15
292,7	0,147
293,1	0,144
293,6	0,14
294,1	0,137
294,5	0,134
295	0,13
295,5	0,126
295,9	0,123
296,4	0,119
296,8	0,115
297,3	0,111
297,8	0,108
298,2	0,104
298,7	0,1
299,1	0,097
299,6	0,093
300,1	0,09
300,5	0,087
301	0,084
301,5	0,081
301,9	0,077
302,4	0,074
302,8	0,071
303,3	0,068
303,8	0,064
304,2	0,061
304,7	0,059
305,1	0,056
305,6	0,054
306,1	0,052
306,5	0,049
307	0,047
307,4	0,045
307,9	0,043
308,4	0,041
308,8	0,039
309,3	0,038
309,8	0,036
310,2	0,035
310,7	0,034
311,1	0,033
311,6	0,031
312,1	0,03
312,5	0,029
313	0,028
313,4	0,026
313,9	0,025
314,4	0,023
314,8	0,023
315,3	0,022
315,7	0,021
316,2	0,02
316,7	0,02
317,1	0,019
317,6	0,019
318	0,019
318,5	0,018
319	0,018
319,4	0,018
319,9	0,018
320,3	0,017
320,8	0,017
321,3	0,016
321,7	0,016
322,2	0,015
322,6	0,015
323,1	0,014
323,6	0,014
324	0,014
324,5	0,014
324,9	0,014
325,4	0,014
325,9	0,014
326,3	0,014
326,8	0,013
327,2	0,013
327,7	0,013
328,2	0,014
328,6	0,014
329,1	0,013
329,5	0,013
330	0,014
330,5	0,014
330,9	0,014
331,4	0,013
331,8	0,013
332,3	0,013
332,8	0,013
333,2	0,013
333,7	0,012
334,1	0,012
334,6	0,013
335,1	0,013
335,5	0,012
336	0,013
336,4	0,013
336,9	0,013
337,4	0,013
337,8	0,013
338,3	0,013
338,7	0,014
339,2	0,014
339,7	0,013
340,1	0,013
340,6	0,013
341	0,013
341,5	0,012
342	0,012
342,4	0,012
342,9	0,012
343,3	0,012
343,8	0,012
344,2	0,012
344,7	0,012
345,2	0,013
345,6	0,013
346,1	0,013
346,5	0,012
347	0,012
347,5	0,012
347,9	0,013
348,4	0,012
348,8	0,012
349,3	0,012
349,8	0,012
350,2	0,012
350,7	0,011
351,1	0,011
351,6	0,011
352	0,012
352,5	0,011
353	0,012
353,4	0,012
353,9	0,011
354,3	0,011
354,8	0,011
355,3	0,011
355,7	0,011
356,2	0,011
356,6	0,011
357,1	0,012
357,5	0,012
358	0,012
358,5	0,012
358,9	0,012
359,4	0,012
359,8	0,012
360,3	0,011
360,8	0,012
361,2	0,012
361,7	0,012
362,1	0,011
362,6	0,012
363	0,012
363,5	0,012
364	0,012
364,4	0,012
364,9	0,012
365,3	0,012
365,8	0,012
366,3	0,012
366,7	0,012
367,2	0,012
367,6	0,012
368,1	0,011
368,5	0,011
369	0,011
369,5	0,011
369,9	0,011
370,4	0,011
370,8	0,011
371,3	0,011
371,7	0,011
372,2	0,011
372,7	0,012
373,1	0,012
373,6	0,012
374	0,012
374,5	0,012
374,9	0,012
375,4	0,012
375,9	0,012
376,3	0,012
376,8	0,012
377,2	0,012
377,7	0,012
378,2	0,012
378,6	0,011
379,1	0,011
379,5	0,011
380	0,011
380,4	0,011
380,9	0,011
381,4	0,01
381,8	0,01
382,3	0,01
382,7	0,01
383,2	0,011
383,6	0,011
384,1	0,011
384,6	0,011
385	0,011
385,5	0,011
385,9	0,011
386,4	0,011
386,8	0,011
387,3	0,011
387,7	0,012
388,2	0,012
388,7	0,012
389,1	0,012
389,6	0,012
390	0,012
390,5	0,011
390,9	0,011
391,4	0,011
391,9	0,011
392,3	0,011
392,8	0,011
393,2	0,011
393,7	0,011
394,1	0,011
394,6	0,011
395,1	0,011
395,5	0,011
396	0,011
396,4	0,011
396,9	0,011
397,3	0,011
397,8	0,01
398,2	0,01
398,7	0,01
399,2	0,01
399,6	0,01
400,1	0,01
400,5	0,01
401	0,01
401,4	0,01
401,9	0,01
402,4	0,009
402,8	0,01
403,3	0,01
403,7	0,01
404,2	0,01
404,6	0,01
405,1	0,011
405,5	0,01
406	0,01
406,5	0,01
406,9	0,01
407,4	0,01
407,8	0,01
408,3	0,01
408,7	0,01
409,2	0,01
409,6	0,01
410,1	0,01
410,6	0,01
411	0,01
411,5	0,01
411,9	0,01
412,4	0,01
412,8	0,01
413,3	0,01
413,7	0,01
414,2	0,01
414,7	0,01
415,1	0,011
415,6	0,011
416	0,011
416,5	0,011
416,9	0,011
417,4	0,011
417,8	0,011
418,3	0,011
418,8	0,011
419,2	0,011
419,7	0,01
420,1	0,01
420,6	0,01
421	0,01
421,5	0,01
421,9	0,01
422,4	0,011
422,8	0,011
423,3	0,011
423,8	0,011
424,2	0,01
424,7	0,01
425,1	0,01
425,6	0,01
426	0,01
426,5	0,01
426,9	0,01
427,4	0,01
427,9	0,01
428,3	0,009
428,8	0,009
429,2	0,009
429,7	0,009
430,1	0,009
430,6	0,009
431	0,01
431,5	0,01
431,9	0,011
432,4	0,011
432,8	0,011
433,3	0,011
433,8	0,011
434,2	0,011
434,7	0,011
435,1	0,011
435,6	0,01
436	0,01
436,5	0,009
436,9	0,009
437,4	0,009
437,8	0,009
438,3	0,009
438,8	0,009
439,2	0,009
439,7	0,009
440,1	0,01
440,6	0,01
441	0,01
441,5	0,01
441,9	0,01
442,4	0,01
442,8	0,01
443,3	0,01
443,7	0,01
444,2	0,01
444,7	0,01
445,1	0,01
445,6	0,01
446	0,011
446,5	0,01
446,9	0,01
447,4	0,011
447,8	0,011
448,3	0,011
448,7	0,011
449,2	0,01
449,6	0,01
450,1	0,01
450,6	0,01
451	0,01
451,5	0,01
451,9	0,011
452,4	0,011
452,8	0,011
453,3	0,011
453,7	0,011
454,2	0,011
454,6	0,011
455,1	0,01
455,5	0,01
456	0,01
456,4	0,01
456,9	0,009
457,3	0,009
457,8	0,009
458,3	0,009
458,7	0,009
459,2	0,01
459,6	0,009
460,1	0,009
460,5	0,01
461	0,01
461,4	0,01
461,9	0,01
462,3	0,01
462,8	0,01
463,2	0,01
463,7	0,01
464,1	0,01
464,6	0,01
465	0,01
465,5	0,01
466	0,01
466,4	0,01
466,9	0,009
467,3	0,009
467,8	0,01
468,2	0,009
468,7	0,01
469,1	0,01
469,6	0,01
470	0,01
470,5	0,01
470,9	0,01
471,4	0,01
471,8	0,011
472,3	0,011
472,7	0,011
473,2	0,011
473,6	0,011
474,1	0,01
474,5	0,01
475	0,009
475,4	0,009
475,9	0,009
476,4	0,009
476,8	0,009
477,3	0,009
477,7	0,009
478,2	0,009
478,6	0,01
479,1	0,01
479,5	0,01
480	0,01
480,4	0,011
480,9	0,011
481,3	0,01
481,8	0,01
482,2	0,01
482,7	0,01
483,1	0,01
483,6	0,009
484	0,009
484,5	0,009
484,9	0,01
485,4	0,01
485,8	0,01
486,3	0,01
486,7	0,01
487,2	0,01
487,6	0,01
488,1	0,009
488,5	0,009
489	0,009
489,4	0,01
489,9	0,009
490,4	0,009
490,8	0,01
491,3	0,01
491,7	0,01
492,2	0,01
492,6	0,01
493,1	0,01
493,5	0,01
494	0,01
494,4	0,01
494,9	0,009
495,3	0,009
495,8	0,008
496,2	0,009
496,7	0,008
497,1	0,009
497,6	0,009
498	0,009
498,5	0,009
498,9	0,009
499,4	0,009
499,8	0,01
500,3	0,01
500,7	0,009
501,2	0,009
501,6	0,009
502,1	0,009
502,5	0,009
503	0,008
503,4	0,008
503,9	0,009
504,3	0,009
504,8	0,009
505,2	0,01
505,7	0,01
506,1	0,01
506,6	0,01
507	0,01
507,5	0,009
507,9	0,009
508,4	0,009
508,8	0,008
509,3	0,008
509,7	0,008
510,2	0,008
510,6	0,009
511,1	0,009
511,5	0,009
512	0,009
512,4	0,01
512,9	0,01
513,3	0,01
513,8	0,01
514,2	0,01
514,7	0,011
515,1	0,011
515,6	0,011
516	0,01
516,5	0,01
516,9	0,01
517,4	0,009
517,8	0,009
518,3	0,009
518,7	0,009
519,2	0,009
519,6	0,009
520,1	0,009
520,5	0,009
521	0,009
521,4	0,009
521,9	0,009
522,3	0,009
522,8	0,009
523,2	0,009
523,7	0,009
524,1	0,009
524,6	0,009
525	0,009
525,5	0,009
525,9	0,009
526,4	0,009
526,8	0,009
527,3	0,009
527,7	0,009
528,2	0,008
528,6	0,009
529,1	0,008
529,5	0,008
530	0,009
530,4	0,009
530,9	0,009
531,3	0,009
531,8	0,009
532,2	0,009
532,6	0,009
533,1	0,009
533,5	0,009
534	0,009
534,4	0,009
534,9	0,009
535,3	0,01
535,8	0,01
536,2	0,01
536,7	0,01
537,1	0,01
537,6	0,01
538	0,01
538,5	0,01
538,9	0,01
539,4	0,01
539,8	0,01
540,3	0,01
540,7	0,01
541,2	0,009
541,6	0,009
542,1	0,009
542,5	0,008
543	0,008
543,4	0,008
543,9	0,008
544,3	0,008
544,8	0,008
545,2	0,008
545,7	0,008
546,1	0,008
546,5	0,008
547	0,008
547,4	0,008
547,9	0,008
548,3	0,008
548,8	0,009
549,2	0,009
549,7	0,009
550,1	0,009
550,6	0,009
551	0,009
551,5	0,01
551,9	0,01
552,4	0,01
552,8	0,01
553,3	0,01
553,7	0,009
554,2	0,009
554,6	0,009
555,1	0,009
555,5	0,009
555,9	0,009
556,4	0,009
556,8	0,009
557,3	0,009
557,7	0,009
558,2	0,009
558,6	0,009
559,1	0,009
559,5	0,009
560	0,008
560,4	0,008
560,9	0,008
561,3	0,008
561,8	0,009
562,2	0,009
562,7	0,009
563,1	0,009
563,6	0,009
564	0,009
564,4	0,009
564,9	0,009
565,3	0,009
565,8	0,009
566,2	0,009
566,7	0,009
567,1	0,009
567,6	0,009
568	0,008
568,5	0,008
568,9	0,009
569,4	0,009
569,8	0,008
570,3	0,009
570,7	0,009
571,1	0,009
571,6	0,009
572	0,009
572,5	0,009
572,9	0,009
573,4	0,009
573,8	0,009
574,3	0,009
574,7	0,009
575,2	0,009
575,6	0,009
576,1	0,009
576,5	0,009
576,9	0,009
577,4	0,009
577,8	0,009
578,3	0,009
578,7	0,009
579,2	0,009
579,6	0,009
580,1	0,009
580,5	0,009
581	0,009
581,4	0,009
581,9	0,009
582,3	0,009
582,7	0,009
583,2	0,009
583,6	0,009
584,1	0,009
584,5	0,009
585	0,009
585,4	0,009
585,9	0,009
586,3	0,009
586,8	0,009
587,2	0,009
587,6	0,01
588,1	0,01
588,5	0,009
589	0,009
589,4	0,01
589,9	0,009
590,3	0,009
590,8	0,009
591,2	0,009
591,7	0,009
592,1	0,009
592,5	0,009
593	0,009
593,4	0,009
593,9	0,009
594,3	0,009
594,8	0,009
595,2	0,009
595,7	0,01
596,1	0,009
596,6	0,009
597	0,009
597,4	0,009
597,9	0,009
598,3	0,009
598,8	0,009
599,2	0,009
599,7	0,009
600,1	0,01
600,6	0,01
601	0,009
601,4	0,009
601,9	0,009
602,3	0,009
602,8	0,009
603,2	0,009
603,7	0,009
604,1	0,009
604,6	0,009
605	0,009
605,4	0,008
605,9	0,008
606,3	0,009
606,8	0,009
607,2	0,009
607,7	0,009
608,1	0,009
608,6	0,009
609	0,009
609,4	0,009
609,9	0,008
610,3	0,008
610,8	0,008
611,2	0,008
611,7	0,008
612,1	0,008
612,6	0,009
613	0,009
613,4	0,009
613,9	0,009
614,3	0,009
614,8	0,009
615,2	0,009
615,7	0,009
616,1	0,008
616,6	0,008
617	0,009
617,4	0,009
617,9	0,009
618,3	0,009
618,8	0,009
619,2	0,009
619,7	0,009
620,1	0,008
620,5	0,008
621	0,008
621,4	0,009
621,9	0,009
622,3	0,009
622,8	0,009
623,2	0,009
623,6	0,009
624,1	0,009
624,5	0,009
625	0,008
625,4	0,008
625,9	0,008
626,3	0,008
626,8	0,008
627,2	0,009
627,6	0,009
628,1	0,009
628,5	0,009
629	0,009
629,4	0,009
629,9	0,009
630,3	0,008
630,7	0,009
631,2	0,009
631,6	0,009
632,1	0,008
632,5	0,009
633	0,009
633,4	0,009
633,8	0,009
634,3	0,009
634,7	0,009
635,2	0,009
635,6	0,009
636,1	0,009
636,5	0,01
636,9	0,009
637,4	0,009
637,8	0,008
638,3	0,008
638,7	0,008
639,2	0,008
639,6	0,008
640	0,009
640,5	0,009
640,9	0,009
641,4	0,009
641,8	0,009
642,2	0,009
642,7	0,009
643,1	0,009
643,6	0,009
644	0,009
644,5	0,009
644,9	0,009
645,3	0,009
645,8	0,009
646,2	0,009
646,7	0,009
647,1	0,009
647,6	0,008
648	0,008
648,4	0,008
648,9	0,008
649,3	0,009
649,8	0,008
650,2	0,008
650,6	0,008
651,1	0,008
651,5	0,008
652	0,009
652,4	0,008
652,9	0,008
653,3	0,008
653,7	0,006
654,2	0,004
654,6	0,003
655,1	0,002
655,5	0,003
655,9	0,004
656,4	0,004
656,8	0,004
657,3	0,005
657,7	0,007
658,2	0,011
658,6	0,009
659	0,008
659,5	0,008
659,9	0,008
660,4	0,008
660,8	0,008
661,2	0,008
661,7	0,008
662,1	0,008
662,6	0,008
663	0,008
663,4	0,008
663,9	0,008
664,3	0,008
664,8	0,008
665,2	0,008
665,6	0,008
666,1	0,008
666,5	0,008
667	0,008
667,4	0,008
667,9	0,007
668,3	0,008
668,7	0,008
669,2	0,008
669,6	0,007
670,1	0,007
670,5	0,008
670,9	0,008
671,4	0,008
671,8	0,008
672,3	0,008
672,7	0,008
673,1	0,008
673,6	0,008
674	0,008
674,5	0,008
674,9	0,008
675,3	0,008
675,8	0,008
676,2	0,008
676,7	0,009
677,1	0,009
677,5	0,009
678	0,009
678,4	0,008
678,9	0,008
679,3	0,008
679,7	0,008
680,2	0,008
680,6	0,008
681,1	0,008
681,5	0,008
681,9	0,008
682,4	0,008
682,8	0,009
683,3	0,009
683,7	0,008
684,1	0,008
684,6	0,008
685	0,008
685,5	0,008
685,9	0,008
686,3	0,007
686,8	0,007
687,2	0,008
687,7	0,008
688,1	0,008
688,5	0,008
689	0,008
689,4	0,008
689,9	0,008
690,3	0,008
690,7	0,008
691,2	0,008
691,6	0,008
692	0,008
692,5	0,008
692,9	0,007
693,4	0,007
693,8	0,008
694,2	0,008
694,7	0,008
695,1	0,008
695,6	0,009
696	0,009
696,4	0,009
696,9	0,008
697,3	0,008
697,8	0,008
698,2	0,008
698,6	0,008
699,1	0,008
699,5	0,008
699,9	0,008
700,4	0,008
700,8	0,008
701,3	0,007
701,7	0,007
702,1	0,007
702,6	0,007
703	0,007
703,5	0,008
703,9	0,008
704,3	0,008
704,8	0,008
705,2	0,009
705,6	0,009
706,1	0,009
706,5	0,009
707	0,008
707,4	0,008
707,8	0,009
708,3	0,008
708,7	0,008
709,2	0,008
709,6	0,008
710	0,008
710,5	0,008
710,9	0,008
711,3	0,008
711,8	0,008
712,2	0,008
712,7	0,008
713,1	0,008
713,5	0,008
714	0,008
714,4	0,008
714,8	0,008
715,3	0,008
715,7	0,008
716,2	0,008
716,6	0,008
717	0,007
717,5	0,007
717,9	0,007
718,3	0,007
718,8	0,007
719,2	0,008
719,7	0,008
720,1	0,008
720,5	0,008
721	0,008
721,4	0,008
721,8	0,008
722,3	0,008
722,7	0,008
723,2	0,008
723,6	0,008
724	0,008
724,5	0,008
724,9	0,008
725,3	0,008
725,8	0,008
726,2	0,008
726,7	0,008
727,1	0,008
727,5	0,008
728	0,008
728,4	0,008
728,8	0,008
729,3	0,008
729,7	0,008
730,1	0,008
730,6	0,008
731	0,009
731,5	0,009
731,9	0,009
732,3	0,009
732,8	0,008
733,2	0,008
733,6	0,008
734,1	0,008
734,5	0,008
734,9	0,008
735,4	0,009
735,8	0,009
736,3	0,009
736,7	0,009
737,1	0,009
737,6	0,009
738	0,009
738,4	0,008
738,9	0,008
739,3	0,008
739,7	0,008
740,2	0,008
740,6	0,008
741,1	0,008
741,5	0,008
741,9	0,008
742,4	0,008
742,8	0,008
743,2	0,008
743,7	0,008
744,1	0,008
744,5	0,008
745	0,008
745,4	0,008
745,8	0,008
746,3	0,008
746,7	0,008
747,2	0,008
747,6	0,008
748	0,008
748,5	0,008
748,9	0,008
749,3	0,008
749,8	0,008
750,2	0,009
750,6	0,009
751,1	0,009
751,5	0,009
751,9	0,009
752,4	0,009
752,8	0,009
753,3	0,009
753,7	0,008
754,1	0,008
754,6	0,008
755	0,008
755,4	0,008
755,9	0,008
756,3	0,008
756,7	0,008
757,2	0,008
757,6	0,008
758	0,008
758,5	0,008
758,9	0,008
759,3	0,008
759,8	0,008
760,2	0,008
760,6	0,008
761,1	0,008
761,5	0,008
761,9	0,008
762,4	0,008
762,8	0,009
763,3	0,008
763,7	0,009
764,1	0,009
764,6	0,009
765	0,009
765,4	0,009
765,9	0,008
766,3	0,009
766,7	0,009
767,2	0,009
767,6	0,009
768	0,009
768,5	0,009
768,9	0,009
769,3	0,009
769,8	0,009
770,2	0,008
770,6	0,008
771,1	0,008
771,5	0,008
771,9	0,008
772,4	0,008
772,8	0,008
773,2	0,008
773,7	0,008
774,1	0,008
774,5	0,008
775	0,008
775,4	0,007
775,8	0,007
776,3	0,007
776,7	0,007
777,1	0,007
777,6	0,007
778	0,007
778,4	0,007
778,9	0,007
779,3	0,007
779,7	0,007
780,2	0,007
780,6	0,008
781	0,008
781,5	0,008
781,9	0,008
782,3	0,008
782,8	0,008
783,2	0,008
783,6	0,008
784,1	0,007
784,5	0,007
784,9	0,007
785,4	0,007
785,8	0,007
786,2	0,007
786,7	0,008
787,1	0,008
787,5	0,008
788	0,008
788,4	0,009
788,8	0,009
789,3	0,009
789,7	0,009
790,1	0,008
790,6	0,008
791	0,008
791,4	0,008
791,9	0,008
792,3	0,008
792,7	0,009
793,2	0,009
793,6	0,009
794	0,009
794,5	0,009
794,9	0,009
795,3	0,009
795,8	0,009
796,2	0,009
796,6	0,009
797,1	0,008
797,5	0,008
797,9	0,008
798,4	0,008
798,8	0,008
799,2	0,008
799,7	0,008
800,1	0,008
800,5	0,008
801	0,008
801,4	0,008
801,8	0,008
802,2	0,008
802,7	0,008
803,1	0,008
803,5	0,008
804	0,008
804,4	0,008
804,8	0,008
805,3	0,008
805,7	0,008
806,1	0,008
806,6	0,008
807	0,009
807,4	0,009
807,9	0,009
808,3	0,009
808,7	0,009
809,2	0,009
809,6	0,009
810	0,009
810,4	0,009
810,9	0,009
811,3	0,009
811,7	0,009
812,2	0,009
812,6	0,009
813	0,008
813,5	0,008
813,9	0,008
814,3	0,008
814,8	0,008
815,2	0,007
815,6	0,007
816,1	0,007
816,5	0,007
816,9	0,007
817,3	0,007
817,8	0,007
818,2	0,007
818,6	0,007
819,1	0,007
819,5	0,008
819,9	0,008
820,4	0,008
820,8	0,008
821,2	0,008
821,7	0,008
822,1	0,008
822,5	0,008
822,9	0,008
823,4	0,008
823,8	0,008
824,2	0,008
824,7	0,008
825,1	0,008
825,5	0,008
826	0,008
826,4	0,008
826,8	0,008
827,3	0,007
827,7	0,007
828,1	0,007
828,5	0,007
829	0,007
829,4	0,007
829,8	0,007
830,3	0,007
830,7	0,007
831,1	0,008
831,6	0,008
832	0,008
832,4	0,008
832,8	0,007
833,3	0,007
833,7	0,008
834,1	0,008
834,6	0,008
835	0,008
835,4	0,008
835,8	0,008
836,3	0,008
836,7	0,007
837,1	0,008
837,6	0,007
838	0,007
838,4	0,007
838,9	0,007
839,3	0,007
839,7	0,007
840,1	0,007
840,6	0,007
841	0,007
841,4	0,007
841,9	0,007
842,3	0,007
842,7	0,007
843,1	0,007
843,6	0,008
844	0,008
844,4	0,008
844,9	0,008
845,3	0,008
845,7	0,008
846,2	0,008
846,6	0,008
847	0,007
847,4	0,007
847,9	0,007
848,3	0,007
848,7	0,007
849,2	0,007
849,6	0,007
850	0,007
850,4	0,008
850,9	0,008
851,3	0,008
851,7	0,008
852,2	0,009
852,6	0,009
853	0,009
853,4	0,009
853,9	0,009
854,3	0,009
854,7	0,009
855,2	0,008
855,6	0,008
856	0,008
856,4	0,008
856,9	0,008
857,3	0,008
857,7	0,008
858,2	0,008
858,6	0,008
859	0,008
859,4	0,008
859,9	0,008
860,3	0,008
860,7	0,008
861,1	0,008
861,6	0,008
862	0,008
862,4	0,008
862,9	0,008
863,3	0,008
863,7	0,008
864,1	0,008
864,6	0,008
865	0,008
865,4	0,008
865,9	0,008
866,3	0,008
866,7	0,008
867,1	0,008
867,6	0,007
868	0,007
868,4	0,008
868,8	0,008
869,3	0,008
869,7	0,008
870,1	0,008
870,6	0,009
871	0,009
871,4	0,009
871,8	0,008
872,3	0,008
872,7	0,008
873,1	0,008
873,5	0,008
874	0,008
874,4	0,008
874,8	0,008
875,3	0,008
875,7	0,008
876,1	0,008
876,5	0,008
877	0,008
877,4	0,008
877,8	0,008
878,2	0,008
878,7	0,008
879,1	0,008
879,5	0,008
879,9	0,008
880,4	0,008
880,8	0,008
881,2	0,008
881,7	0,008
882,1	0,009
882,5	0,009
882,9	0,009
883,4	0,008
883,8	0,008
884,2	0,008
884,6	0,008
885,1	0,008
885,5	0,008
885,9	0,008
886,3	0,008
886,8	0,008
887,2	0,008
887,6	0,008
888	0,008
888,5	0,008
888,9	0,008
889,3	0,009
889,8	0,009
890,2	0,008
890,6	0,008
891	0,008
891,5	0,008
891,9	0,008
892,3	0,008
892,7	0,008
893,2	0,008
893,6	0,008
894	0,008
894,4	0,008
894,9	0,008
895,3	0,008
895,7	0,008
896,1	0,007
896,6	0,007
897	0,007
897,4	0,007
897,8	0,008
898,3	0,008
898,7	0,008
899,1	0,008
899,5	0,008
900	0,008
900,4	0,008
900,8	0,008
901,2	0,007
901,7	0,007
902,1	0,007
902,5	0,007
902,9	0,008
903,4	0,008
903,8	0,007
904,2	0,008
904,6	0,008
905,1	0,008
905,5	0,008
905,9	0,008
906,3	0,008
906,8	0,009
907,2	0,009
907,6	0,009
908	0,009
908,5	0,009
908,9	0,009
909,3	0,009
909,7	0,009
910,2	0,008
910,6	0,009
911	0,009
911,4	0,009
911,9	0,009
912,3	0,009
912,7	0,009
913,1	0,009
913,6	0,009
914	0,009
914,4	0,008
914,8	0,008
915,3	0,008
915,7	0,008
916,1	0,008
916,5	0,008
916,9	0,007
917,4	0,007
917,8	0,007
918,2	0,007
918,6	0,006
919,1	0,006
919,5	0,007
919,9	0,006
920,3	0,007
920,8	0,007
921,2	0,007
921,6	0,007
922	0,008
922,5	0,008
922,9	0,008
923,3	0,008
923,7	0,008
924,2	0,008
924,6	0,008
925	0,008
925,4	0,008
925,8	0,008
926,3	0,008
926,7	0,008
927,1	0,008
927,5	0,008
928	0,008
928,4	0,009
928,8	0,009
929,2	0,009
929,7	0,009
930,1	0,009
930,5	0,01
930,9	0,009
931,3	0,009
931,8	0,009
932,2	0,009
932,6	0,008
933	0,009
933,5	0,008
933,9	0,009
934,3	0,009
934,7	0,009
935,2	0,009
935,6	0,009
936	0,009
936,4	0,009
936,8	0,008
937,3	0,009
937,7	0,008
938,1	0,008
938,5	0,008
939	0,008
939,4	0,008
939,8	0,007
940,2	0,007
940,6	0,007
941,1	0,008
941,5	0,008
941,9	0,008
942,3	0,008
942,8	0,009
943,2	0,009
943,6	0,009
944	0,009
944,4	0,009
944,9	0,009
945,3	0,009
945,7	0,009
946,1	0,009
946,6	0,009
947	0,009
947,4	0,008
947,8	0,008
948,2	0,008
948,7	0,008
949,1	0,008
949,5	0,008
949,9	0,008
950,3	0,008
950,8	0,009
951,2	0,008
951,6	0,008
952	0,008
952,5	0,008
952,9	0,008
953,3	0,008
953,7	0,008
954,1	0,008
954,6	0,008
955	0,008
955,4	0,008
955,8	0,008
956,2	0,008
956,7	0,008
957,1	0,008
957,5	0,008
957,9	0,009
958,3	0,009
958,8	0,009
959,2	0,009
959,6	0,01
960	0,009
960,5	0,009
960,9	0,009
961,3	0,008
961,7	0,008
962,1	0,008
962,6	0,009
963	0,009
963,4	0,009
963,8	0,009
964,2	0,01
964,7	0,011
965,1	0,011
965,5	0,011
965,9	0,011
966,3	0,011
966,8	0,011
967,2	0,011
967,6	0,01
968	0,01
968,4	0,01
968,9	0,01
969,3	0,01
969,7	0,01
970,1	0,009
970,5	0,009
971	0,009
971,4	0,008
971,8	0,008
972,2	0,008
972,6	0,008
973,1	0,008
973,5	0,008
973,9	0,008
974,3	0,009
974,7	0,009
975,2	0,009
975,6	0,008
976	0,008
976,4	0,008
976,8	0,009
977,3	0,008
977,7	0,008
978,1	0,009
978,5	0,009
978,9	0,008
979,4	0,008
979,8	0,008
980,2	0,008
980,6	0,007
981	0,007
981,5	0,007
981,9	0,007
982,3	0,008
982,7	0,008
983,1	0,008
983,6	0,008
984	0,009
984,4	0,009
984,8	0,009
985,2	0,008
985,6	0,009
986,1	0,009
986,5	0,009
986,9	0,009
987,3	0,009
987,7	0,009
988,2	0,009
988,6	0,009
989	0,009
989,4	0,008
989,8	0,007
990,3	0,007
990,7	0,007
991,1	0,007
991,5	0,007
991,9	0,007
992,3	0,007
992,8	0,007
993,2	0,007
993,6	0,007
994	0,007
994,4	0,007
994,9	0,007
995,3	0,007
995,7	0,007
996,1	0,007
996,5	0,007
996,9	0,007
997,4	0,007
997,8	0,007
998,2	0,007
998,6	0,007
999	0,007
999,5	0,008
999,9	0,008
1000,3	0,008
1000,7	0,008
1001,1	0,008
1001,5	0,008
1002	0,008
1002,4	0,008
1002,8	0,009
1003,2	0,008
1003,6	0,008
1004	0,008
1004,5	0,008
1004,9	0,008
1005,3	0,008
1005,7	0,008
1006,1	0,008
1006,6	0,008
1007	0,008
1007,4	0,008
1007,8	0,008
1008,2	0,007
1008,6	0,007
1009,1	0,008
1009,5	0,008
1009,9	0,009
1010,3	0,009
1010,7	0,009
1011,1	0,009
1011,6	0,008
1012	0,009
1012,4	0,009
1012,8	0,008
1013,2	0,008
1013,6	0,008
1014,1	0,008
1014,5	0,009
1014,9	0,009
1015,3	0,008
1015,7	0,008
1016,1	0,008
1016,6	0,008
1017	0,008
1017,4	0,007
1017,8	0,007
1018,2	0,007
1018,6	0,007
1019,1	0,007
1019,5	0,007
1019,9	0,007
1020,3	0,007
1020,7	0,007
1021,1	0,008
1021,6	0,008
1022	0,008
1022,4	0,009
1022,8	0,008
1023,2	0,009
1023,6	0,01
1024,1	0,009
1024,5	0,009
1024,9	0,009
1025,3	0,008
1025,7	0,008
1026,1	0,008
1026,6	0,007
1027	0,007
1027,4	0,008
1027,8	0,007
1028,2	0,008
1028,6	0,008
1029	0,008
1029,5	0,008
1029,9	0,008
1030,3	0,007
1030,7	0,008
1031,1	0,008
1031,5	0,008
1032	0,008
1032,4	0,007
1032,8	0,008
1033,2	0,008
1033,6	0,007
1034	0,006
1034,4	0,006
1034,9	0,005
1035,3	0,005
1035,7	0,005
1036,1	0,005
1036,5	0,005
1036,9	0,006
1037,4	0,006
1037,8	0,007
1038,2	0,008
1038,6	0,008
1039	0,008
1039,4	0,008
1039,8	0,008
1040,3	0,008
1040,7	0,007
1041,1	0,007
1041,5	0,006
1041,9	0,006
1042,3	0,006
1042,7	0,005
1043,2	0,005
1043,6	0,005
1044	0,006
1044,4	0,006
1044,8	0,006
1045,2	0,006
1045,6	0,007
1046,1	0,007
1046,5	0,007
1046,9	0,007
1047,3	0,007
1047,7	0,007
1048,1	0,006
1048,5	0,006
1049	0,006
1049,4	0,006
1049,8	0,006
1050,2	0,006
1050,6	0,007
1051	0,008
1051,4	0,008
1051,9	0,008
1052,3	0,009
1052,7	0,009
1053,1	0,009
1053,5	0,008
1053,9	0,008
1054,3	0,008
1054,8	0,007
1055,2	0,008
1055,6	0,008
1056	0,008
1056,4	0,007
1056,8	0,007
1057,2	0,007
1057,6	0,007
1058,1	0,006
1058,5	0,007
1058,9	0,006
1059,3	0,007
1059,7	0,008
1060,1	0,008
1060,5	0,008
1061	0,008
1061,4	0,008
1061,8	0,008
1062,2	0,007
1062,6	0,007
1063	0,007
1063,4	0,006
1063,8	0,006
1064,3	0,006
1064,7	0,004
1065,1	0,005
1065,5	0,005
1065,9	0,004
1066,3	0,005
1066,7	0,005
1067,1	0,005
1067,6	0,007
1068	0,006
1068,4	0,006
1068,8	0,006
1069,2	0,007
1069,6	0,007
1070	0,007
1070,4	0,007
1070,9	0,008
1071,3	0,009
1071,7	0,009
1072,1	0,009
1072,5	0,008
1072,9	0,007
1073,3	0,006
1073,7	0,006
1074,2	0,006
1074,6	0,005
1075	0,006
1075,4	0,007
1075,8	0,006
1076,2	0,006
1076,6	0,005
1077	0,006
1077,5	0,007
1077,9	0,006
1078,3	0,007
1078,7	0,009
1079,1	0,01
1079,5	0,009
1079,9	0,009
1080,3	0,007
1080,7	0,01
1081,2	0,009
1081,6	0,009
1082	0,009
1082,4	0,011
1082,8	0,011
1083,2	0,014
1083,6	0,011
1084	0,008
1084,5	0,005
1084,9	0,005
1085,3	0,003
1085,7	0,003
1086,1	0,001
1086,5	0,003
1086,9	0,005
1087,3	0,008
1087,7	0,01
1088,2	0,012
1088,6	0,011
1089	0,01
1089,4	0,011
1089,8	0,011
1090,2	0,011
1090,6	0,009
1091	0,007
1091,4	0,006
1091,9	0,008
1092,3	0,009
1092,7	0,008
1093,1	0,008
1093,5	0,003
1093,9	0,006
1094,3	0,005
1094,7	0,003
1095,1	0
1095,5	-0,003
1096	-0,002
1096,4	-0,003
1096,8	-0,011
1097,2	-0,007
1097,6	-0,006
1098	-0,004
1098,4	-0,004
1098,8	-0,006
1099,2	-0,002
1099,6	0,009
1100,1	0,012
1100,5	0,015
1100,9	0,019
1101,3	0,027
1101,7	0,025
1102,1	0,03
1102,5	0,02
1102,9	0,015
1103,3	0,001
1103,7	-0,002
1104,2	-0,004
1104,6	-0,007
1105	-0,017
1105,4	-0,011
1105,8	-0,006
1106,2	0,009
1106,6	-0
1107	-0,009
1107,4	0,008
1107,8	0,05
1108,3	0,855
