Data from Absorbance_124.txt Node
Date: Fri Nov 13 19:06:17 MSK 2020
User: vat
Spectrometer: MAYP114033
Trigger mode: 0
Integration Time (sec): 8,000000E-3
Scans to average: 10
Electric dark correction enabled: true
Nonlinearity correction enabled: false
Boxcar width: 3
XAxis mode: Wavelengths
Number of Pixels in Spectrum: 2068
>>>>>Begin Spectral Data<<<<<
199,4	-0,021
199,9	0,08
200,4	0,044
200,8	0,032
201,3	0,048
201,8	0,069
202,2	0,049
202,7	0,05
203,2	0,034
203,6	0,047
204,1	0,048
204,6	0,046
205	0,025
205,5	0,024
206	0,019
206,4	0,027
206,9	0,01
207,4	0,013
207,8	-0
208,3	0,014
208,8	0,009
209,2	0,007
209,7	-0,002
210,2	-0,012
210,6	-0,021
211,1	-0,003
211,5	-0,009
212	-0,001
212,5	0,015
212,9	0,032
213,4	0,05
213,9	0,053
214,3	0,044
214,8	0,034
215,3	0,059
215,7	0,059
216,2	0,049
216,7	0,054
217,1	0,054
217,6	0,056
218,1	0,068
218,5	0,039
219	0,006
219,5	0,01
219,9	0,006
220,4	0,02
220,9	0,02
221,3	-0,002
221,8	0,003
222,3	0,032
222,7	0,033
223,2	0,031
223,6	0,021
224,1	0,017
224,6	0,048
225	0,065
225,5	0,061
226	0,067
226,4	0,064
226,9	0,067
227,4	0,078
227,8	0,07
228,3	0,07
228,8	0,078
229,2	0,071
229,7	0,069
230,2	0,063
230,6	0,053
231,1	0,045
231,5	0,035
232	0,027
232,5	0,024
232,9	0,033
233,4	0,048
233,9	0,046
234,3	0,06
234,8	0,059
235,3	0,05
235,7	0,057
236,2	0,077
236,7	0,076
237,1	0,093
237,6	0,089
238,1	0,099
238,5	0,103
239	0,11
239,4	0,088
239,9	0,087
240,4	0,08
240,8	0,081
241,3	0,077
241,8	0,088
242,2	0,079
242,7	0,089
243,2	0,093
243,6	0,104
244,1	0,117
244,6	0,125
245	0,128
245,5	0,144
245,9	0,159
246,4	0,166
246,9	0,164
247,3	0,159
247,8	0,171
248,3	0,178
248,7	0,181
249,2	0,179
249,7	0,179
250,1	0,183
250,6	0,184
251	0,185
251,5	0,187
252	0,192
252,4	0,194
252,9	0,196
253,4	0,2
253,8	0,203
254,3	0,207
254,8	0,209
255,2	0,211
255,7	0,214
256,1	0,219
256,6	0,222
257,1	0,226
257,5	0,23
258	0,238
258,5	0,244
258,9	0,251
259,4	0,257
259,9	0,264
260,3	0,272
260,8	0,28
261,2	0,288
261,7	0,296
262,2	0,304
262,6	0,313
263,1	0,322
263,6	0,33
264	0,337
264,5	0,345
264,9	0,354
265,4	0,362
265,9	0,369
266,3	0,378
266,8	0,386
267,3	0,394
267,7	0,403
268,2	0,412
268,7	0,42
269,1	0,43
269,6	0,439
270	0,449
270,5	0,458
271	0,466
271,4	0,474
271,9	0,482
272,4	0,49
272,8	0,497
273,3	0,504
273,7	0,511
274,2	0,52
274,7	0,527
275,1	0,534
275,6	0,54
276,1	0,547
276,5	0,554
277	0,561
277,4	0,566
277,9	0,572
278,4	0,576
278,8	0,58
279,3	0,585
279,8	0,588
280,2	0,591
280,7	0,593
281,1	0,595
281,6	0,597
282,1	0,598
282,5	0,599
283	0,599
283,4	0,599
283,9	0,598
284,4	0,597
284,8	0,595
285,3	0,593
285,8	0,589
286,2	0,585
286,7	0,581
287,1	0,576
287,6	0,571
288,1	0,566
288,5	0,56
289	0,554
289,5	0,547
289,9	0,539
290,4	0,532
290,8	0,523
291,3	0,515
291,8	0,504
292,2	0,494
292,7	0,484
293,1	0,473
293,6	0,462
294,1	0,451
294,5	0,44
295	0,428
295,5	0,417
295,9	0,405
296,4	0,394
296,8	0,382
297,3	0,369
297,8	0,357
298,2	0,345
298,7	0,333
299,1	0,321
299,6	0,309
300,1	0,298
300,5	0,287
301	0,275
301,5	0,265
301,9	0,254
302,4	0,243
302,8	0,233
303,3	0,222
303,8	0,213
304,2	0,203
304,7	0,194
305,1	0,186
305,6	0,178
306,1	0,17
306,5	0,163
307	0,155
307,4	0,148
307,9	0,142
308,4	0,136
308,8	0,129
309,3	0,124
309,8	0,118
310,2	0,113
310,7	0,108
311,1	0,104
311,6	0,099
312,1	0,095
312,5	0,09
313	0,087
313,4	0,083
313,9	0,08
314,4	0,076
314,8	0,073
315,3	0,07
315,7	0,068
316,2	0,065
316,7	0,063
317,1	0,061
317,6	0,059
318	0,057
318,5	0,056
319	0,055
319,4	0,052
319,9	0,051
320,3	0,049
320,8	0,048
321,3	0,046
321,7	0,045
322,2	0,044
322,6	0,044
323,1	0,043
323,6	0,042
324	0,042
324,5	0,041
324,9	0,041
325,4	0,04
325,9	0,039
326,3	0,039
326,8	0,038
327,2	0,038
327,7	0,038
328,2	0,037
328,6	0,037
329,1	0,036
329,5	0,036
330	0,035
330,5	0,035
330,9	0,035
331,4	0,035
331,8	0,034
332,3	0,034
332,8	0,034
333,2	0,033
333,7	0,033
334,1	0,032
334,6	0,032
335,1	0,032
335,5	0,031
336	0,031
336,4	0,031
336,9	0,031
337,4	0,031
337,8	0,031
338,3	0,031
338,7	0,031
339,2	0,031
339,7	0,03
340,1	0,03
340,6	0,029
341	0,029
341,5	0,028
342	0,028
342,4	0,028
342,9	0,028
343,3	0,028
343,8	0,028
344,2	0,027
344,7	0,027
345,2	0,028
345,6	0,027
346,1	0,027
346,5	0,027
347	0,027
347,5	0,027
347,9	0,027
348,4	0,027
348,8	0,026
349,3	0,026
349,8	0,025
350,2	0,025
350,7	0,025
351,1	0,025
351,6	0,025
352	0,024
352,5	0,024
353	0,024
353,4	0,024
353,9	0,024
354,3	0,023
354,8	0,024
355,3	0,024
355,7	0,023
356,2	0,023
356,6	0,023
357,1	0,023
357,5	0,023
358	0,023
358,5	0,022
358,9	0,023
359,4	0,022
359,8	0,022
360,3	0,021
360,8	0,021
361,2	0,021
361,7	0,022
362,1	0,021
362,6	0,021
363	0,021
363,5	0,021
364	0,021
364,4	0,021
364,9	0,021
365,3	0,021
365,8	0,021
366,3	0,021
366,7	0,021
367,2	0,02
367,6	0,02
368,1	0,019
368,5	0,019
369	0,019
369,5	0,018
369,9	0,019
370,4	0,019
370,8	0,019
371,3	0,019
371,7	0,019
372,2	0,018
372,7	0,018
373,1	0,018
373,6	0,018
374	0,018
374,5	0,018
374,9	0,018
375,4	0,018
375,9	0,018
376,3	0,018
376,8	0,017
377,2	0,017
377,7	0,017
378,2	0,017
378,6	0,017
379,1	0,016
379,5	0,016
380	0,016
380,4	0,016
380,9	0,016
381,4	0,015
381,8	0,015
382,3	0,015
382,7	0,015
383,2	0,015
383,6	0,015
384,1	0,015
384,6	0,015
385	0,015
385,5	0,015
385,9	0,015
386,4	0,015
386,8	0,015
387,3	0,015
387,7	0,016
388,2	0,016
388,7	0,016
389,1	0,016
389,6	0,016
390	0,016
390,5	0,015
390,9	0,015
391,4	0,015
391,9	0,015
392,3	0,015
392,8	0,014
393,2	0,014
393,7	0,014
394,1	0,014
394,6	0,014
395,1	0,014
395,5	0,014
396	0,015
396,4	0,014
396,9	0,014
397,3	0,014
397,8	0,014
398,2	0,013
398,7	0,013
399,2	0,013
399,6	0,013
400,1	0,013
400,5	0,014
401	0,013
401,4	0,013
401,9	0,013
402,4	0,013
402,8	0,013
403,3	0,013
403,7	0,013
404,2	0,013
404,6	0,012
405,1	0,013
405,5	0,012
406	0,012
406,5	0,012
406,9	0,012
407,4	0,012
407,8	0,012
408,3	0,011
408,7	0,012
409,2	0,011
409,6	0,011
410,1	0,011
410,6	0,011
411	0,012
411,5	0,011
411,9	0,011
412,4	0,011
412,8	0,011
413,3	0,011
413,7	0,011
414,2	0,011
414,7	0,011
415,1	0,011
415,6	0,011
416	0,011
416,5	0,011
416,9	0,011
417,4	0,011
417,8	0,011
418,3	0,011
418,8	0,011
419,2	0,011
419,7	0,011
420,1	0,011
420,6	0,011
421	0,011
421,5	0,011
421,9	0,011
422,4	0,011
422,8	0,011
423,3	0,011
423,8	0,011
424,2	0,01
424,7	0,01
425,1	0,01
425,6	0,01
426	0,01
426,5	0,01
426,9	0,01
427,4	0,01
427,9	0,009
428,3	0,009
428,8	0,009
429,2	0,008
429,7	0,008
430,1	0,008
430,6	0,008
431	0,008
431,5	0,008
431,9	0,008
432,4	0,009
432,8	0,009
433,3	0,009
433,8	0,01
434,2	0,01
434,7	0,01
435,1	0,009
435,6	0,009
436	0,009
436,5	0,009
436,9	0,008
437,4	0,008
437,8	0,008
438,3	0,008
438,8	0,009
439,2	0,009
439,7	0,009
440,1	0,009
440,6	0,009
441	0,009
441,5	0,009
441,9	0,009
442,4	0,009
442,8	0,009
443,3	0,008
443,7	0,009
444,2	0,009
444,7	0,009
445,1	0,009
445,6	0,009
446	0,009
446,5	0,009
446,9	0,008
447,4	0,009
447,8	0,009
448,3	0,009
448,7	0,009
449,2	0,008
449,6	0,009
450,1	0,009
450,6	0,008
451	0,009
451,5	0,008
451,9	0,009
452,4	0,009
452,8	0,009
453,3	0,009
453,7	0,008
454,2	0,008
454,6	0,008
455,1	0,008
455,5	0,008
456	0,008
456,4	0,008
456,9	0,008
457,3	0,008
457,8	0,007
458,3	0,007
458,7	0,007
459,2	0,007
459,6	0,007
460,1	0,007
460,5	0,007
461	0,008
461,4	0,008
461,9	0,008
462,3	0,008
462,8	0,008
463,2	0,008
463,7	0,008
464,1	0,008
464,6	0,007
465	0,008
465,5	0,008
466	0,008
466,4	0,008
466,9	0,008
467,3	0,008
467,8	0,008
468,2	0,008
468,7	0,008
469,1	0,008
469,6	0,008
470	0,008
470,5	0,008
470,9	0,007
471,4	0,007
471,8	0,007
472,3	0,007
472,7	0,007
473,2	0,007
473,6	0,008
474,1	0,008
474,5	0,007
475	0,007
475,4	0,007
475,9	0,006
476,4	0,007
476,8	0,006
477,3	0,007
477,7	0,007
478,2	0,007
478,6	0,007
479,1	0,007
479,5	0,007
480	0,007
480,4	0,007
480,9	0,007
481,3	0,007
481,8	0,006
482,2	0,007
482,7	0,006
483,1	0,006
483,6	0,006
484	0,006
484,5	0,006
484,9	0,007
485,4	0,006
485,8	0,007
486,3	0,007
486,7	0,007
487,2	0,007
487,6	0,007
488,1	0,007
488,5	0,007
489	0,007
489,4	0,006
489,9	0,006
490,4	0,005
490,8	0,006
491,3	0,005
491,7	0,006
492,2	0,006
492,6	0,006
493,1	0,006
493,5	0,007
494	0,007
494,4	0,007
494,9	0,006
495,3	0,006
495,8	0,006
496,2	0,006
496,7	0,006
497,1	0,006
497,6	0,006
498	0,006
498,5	0,006
498,9	0,005
499,4	0,006
499,8	0,005
500,3	0,005
500,7	0,005
501,2	0,005
501,6	0,006
502,1	0,006
502,5	0,006
503	0,006
503,4	0,007
503,9	0,007
504,3	0,007
504,8	0,007
505,2	0,007
505,7	0,007
506,1	0,006
506,6	0,006
507	0,006
507,5	0,006
507,9	0,005
508,4	0,005
508,8	0,006
509,3	0,006
509,7	0,006
510,2	0,006
510,6	0,006
511,1	0,006
511,5	0,006
512	0,006
512,4	0,006
512,9	0,006
513,3	0,006
513,8	0,006
514,2	0,006
514,7	0,006
515,1	0,007
515,6	0,006
516	0,006
516,5	0,006
516,9	0,006
517,4	0,006
517,8	0,005
518,3	0,005
518,7	0,005
519,2	0,005
519,6	0,006
520,1	0,006
520,5	0,006
521	0,006
521,4	0,006
521,9	0,006
522,3	0,005
522,8	0,005
523,2	0,004
523,7	0,005
524,1	0,005
524,6	0,005
525	0,005
525,5	0,005
525,9	0,005
526,4	0,005
526,8	0,005
527,3	0,005
527,7	0,005
528,2	0,005
528,6	0,005
529,1	0,005
529,5	0,005
530	0,005
530,4	0,005
530,9	0,005
531,3	0,005
531,8	0,005
532,2	0,004
532,6	0,004
533,1	0,004
533,5	0,004
534	0,004
534,4	0,005
534,9	0,005
535,3	0,005
535,8	0,005
536,2	0,005
536,7	0,005
537,1	0,005
537,6	0,006
538	0,006
538,5	0,006
538,9	0,007
539,4	0,007
539,8	0,006
540,3	0,006
540,7	0,006
541,2	0,006
541,6	0,006
542,1	0,005
542,5	0,005
543	0,005
543,4	0,005
543,9	0,005
544,3	0,005
544,8	0,004
545,2	0,005
545,7	0,005
546,1	0,005
546,5	0,005
547	0,005
547,4	0,005
547,9	0,005
548,3	0,005
548,8	0,005
549,2	0,005
549,7	0,005
550,1	0,005
550,6	0,005
551	0,005
551,5	0,005
551,9	0,005
552,4	0,005
552,8	0,004
553,3	0,004
553,7	0,004
554,2	0,004
554,6	0,004
555,1	0,004
555,5	0,004
555,9	0,004
556,4	0,004
556,8	0,004
557,3	0,004
557,7	0,004
558,2	0,005
558,6	0,004
559,1	0,004
559,5	0,004
560	0,004
560,4	0,004
560,9	0,005
561,3	0,004
561,8	0,005
562,2	0,004
562,7	0,005
563,1	0,005
563,6	0,005
564	0,004
564,4	0,004
564,9	0,004
565,3	0,005
565,8	0,004
566,2	0,004
566,7	0,004
567,1	0,004
567,6	0,004
568	0,004
568,5	0,004
568,9	0,005
569,4	0,005
569,8	0,004
570,3	0,004
570,7	0,005
571,1	0,005
571,6	0,004
572	0,004
572,5	0,004
572,9	0,005
573,4	0,005
573,8	0,004
574,3	0,004
574,7	0,004
575,2	0,004
575,6	0,004
576,1	0,004
576,5	0,004
576,9	0,004
577,4	0,004
577,8	0,004
578,3	0,004
578,7	0,004
579,2	0,004
579,6	0,004
580,1	0,004
580,5	0,004
581	0,004
581,4	0,004
581,9	0,004
582,3	0,004
582,7	0,004
583,2	0,004
583,6	0,004
584,1	0,004
584,5	0,005
585	0,005
585,4	0,005
585,9	0,005
586,3	0,005
586,8	0,005
587,2	0,004
587,6	0,005
588,1	0,004
588,5	0,005
589	0,005
589,4	0,005
589,9	0,005
590,3	0,005
590,8	0,005
591,2	0,005
591,7	0,005
592,1	0,005
592,5	0,005
593	0,005
593,4	0,005
593,9	0,005
594,3	0,005
594,8	0,005
595,2	0,005
595,7	0,005
596,1	0,004
596,6	0,004
597	0,004
597,4	0,004
597,9	0,004
598,3	0,004
598,8	0,004
599,2	0,004
599,7	0,004
600,1	0,004
600,6	0,004
601	0,004
601,4	0,004
601,9	0,004
602,3	0,004
602,8	0,005
603,2	0,005
603,7	0,005
604,1	0,005
604,6	0,005
605	0,005
605,4	0,004
605,9	0,004
606,3	0,004
606,8	0,004
607,2	0,004
607,7	0,004
608,1	0,004
608,6	0,004
609	0,004
609,4	0,004
609,9	0,004
610,3	0,004
610,8	0,004
611,2	0,004
611,7	0,004
612,1	0,004
612,6	0,004
613	0,004
613,4	0,004
613,9	0,004
614,3	0,004
614,8	0,004
615,2	0,004
615,7	0,004
616,1	0,004
616,6	0,004
617	0,004
617,4	0,004
617,9	0,005
618,3	0,005
618,8	0,005
619,2	0,005
619,7	0,005
620,1	0,005
620,5	0,004
621	0,004
621,4	0,004
621,9	0,004
622,3	0,004
622,8	0,004
623,2	0,004
623,6	0,004
624,1	0,004
624,5	0,004
625	0,004
625,4	0,004
625,9	0,004
626,3	0,004
626,8	0,004
627,2	0,004
627,6	0,004
628,1	0,004
628,5	0,004
629	0,004
629,4	0,004
629,9	0,005
630,3	0,004
630,7	0,004
631,2	0,004
631,6	0,004
632,1	0,004
632,5	0,004
633	0,004
633,4	0,003
633,8	0,004
634,3	0,004
634,7	0,004
635,2	0,004
635,6	0,004
636,1	0,004
636,5	0,004
636,9	0,004
637,4	0,004
637,8	0,004
638,3	0,004
638,7	0,004
639,2	0,004
639,6	0,004
640	0,004
640,5	0,004
640,9	0,004
641,4	0,005
641,8	0,004
642,2	0,004
642,7	0,004
643,1	0,004
643,6	0,004
644	0,004
644,5	0,004
644,9	0,004
645,3	0,004
645,8	0,004
646,2	0,004
646,7	0,004
647,1	0,004
647,6	0,004
648	0,004
648,4	0,004
648,9	0,004
649,3	0,004
649,8	0,004
650,2	0,004
650,6	0,004
651,1	0,004
651,5	0,004
652	0,004
652,4	0,004
652,9	0,003
653,3	0,003
653,7	0,002
654,2	0,001
654,6	0,001
655,1	0,001
655,5	0,001
655,9	0,002
656,4	0,002
656,8	0,002
657,3	0,003
657,7	0,004
658,2	0,005
658,6	0,004
659	0,004
659,5	0,003
659,9	0,003
660,4	0,003
660,8	0,003
661,2	0,003
661,7	0,003
662,1	0,003
662,6	0,003
663	0,003
663,4	0,003
663,9	0,003
664,3	0,003
664,8	0,003
665,2	0,003
665,6	0,003
666,1	0,004
666,5	0,004
667	0,004
667,4	0,004
667,9	0,003
668,3	0,004
668,7	0,004
669,2	0,003
669,6	0,003
670,1	0,003
670,5	0,003
670,9	0,003
671,4	0,003
671,8	0,003
672,3	0,003
672,7	0,003
673,1	0,003
673,6	0,003
674	0,003
674,5	0,003
674,9	0,003
675,3	0,003
675,8	0,003
676,2	0,003
676,7	0,003
677,1	0,004
677,5	0,004
678	0,004
678,4	0,004
678,9	0,004
679,3	0,004
679,7	0,004
680,2	0,004
680,6	0,003
681,1	0,003
681,5	0,003
681,9	0,003
682,4	0,003
682,8	0,003
683,3	0,004
683,7	0,004
684,1	0,004
684,6	0,004
685	0,004
685,5	0,003
685,9	0,004
686,3	0,003
686,8	0,003
687,2	0,003
687,7	0,003
688,1	0,003
688,5	0,003
689	0,003
689,4	0,003
689,9	0,003
690,3	0,003
690,7	0,003
691,2	0,003
691,6	0,003
692	0,003
692,5	0,003
692,9	0,003
693,4	0,003
693,8	0,003
694,2	0,004
694,7	0,004
695,1	0,004
695,6	0,004
696	0,004
696,4	0,004
696,9	0,004
697,3	0,004
697,8	0,004
698,2	0,004
698,6	0,004
699,1	0,004
699,5	0,003
699,9	0,003
700,4	0,003
700,8	0,003
701,3	0,003
701,7	0,003
702,1	0,003
702,6	0,003
703	0,003
703,5	0,003
703,9	0,003
704,3	0,004
704,8	0,003
705,2	0,004
705,6	0,004
706,1	0,003
706,5	0,003
707	0,003
707,4	0,003
707,8	0,003
708,3	0,003
708,7	0,003
709,2	0,003
709,6	0,003
710	0,003
710,5	0,003
710,9	0,003
711,3	0,003
711,8	0,003
712,2	0,003
712,7	0,003
713,1	0,003
713,5	0,003
714	0,003
714,4	0,004
714,8	0,004
715,3	0,004
715,7	0,004
716,2	0,004
716,6	0,004
717	0,004
717,5	0,004
717,9	0,004
718,3	0,004
718,8	0,004
719,2	0,004
719,7	0,004
720,1	0,004
720,5	0,004
721	0,004
721,4	0,004
721,8	0,004
722,3	0,004
722,7	0,004
723,2	0,004
723,6	0,003
724	0,003
724,5	0,004
724,9	0,004
725,3	0,004
725,8	0,004
726,2	0,004
726,7	0,004
727,1	0,004
727,5	0,004
728	0,004
728,4	0,004
728,8	0,004
729,3	0,003
729,7	0,003
730,1	0,004
730,6	0,004
731	0,004
731,5	0,004
731,9	0,004
732,3	0,004
732,8	0,004
733,2	0,004
733,6	0,004
734,1	0,004
734,5	0,004
734,9	0,003
735,4	0,004
735,8	0,004
736,3	0,004
736,7	0,004
737,1	0,004
737,6	0,004
738	0,004
738,4	0,004
738,9	0,003
739,3	0,003
739,7	0,003
740,2	0,003
740,6	0,004
741,1	0,004
741,5	0,003
741,9	0,004
742,4	0,004
742,8	0,004
743,2	0,004
743,7	0,003
744,1	0,003
744,5	0,003
745	0,003
745,4	0,003
745,8	0,003
746,3	0,003
746,7	0,003
747,2	0,003
747,6	0,003
748	0,003
748,5	0,003
748,9	0,003
749,3	0,003
749,8	0,004
750,2	0,004
750,6	0,004
751,1	0,004
751,5	0,004
751,9	0,004
752,4	0,004
752,8	0,004
753,3	0,004
753,7	0,003
754,1	0,003
754,6	0,003
755	0,003
755,4	0,003
755,9	0,003
756,3	0,003
756,7	0,003
757,2	0,003
757,6	0,003
758	0,004
758,5	0,004
758,9	0,003
759,3	0,003
759,8	0,003
760,2	0,003
760,6	0,003
761,1	0,003
761,5	0,003
761,9	0,003
762,4	0,003
762,8	0,003
763,3	0,004
763,7	0,003
764,1	0,003
764,6	0,003
765	0,003
765,4	0,003
765,9	0,003
766,3	0,003
766,7	0,004
767,2	0,004
767,6	0,004
768	0,004
768,5	0,004
768,9	0,004
769,3	0,003
769,8	0,003
770,2	0,003
770,6	0,003
771,1	0,003
771,5	0,003
771,9	0,003
772,4	0,004
772,8	0,003
773,2	0,003
773,7	0,004
774,1	0,004
774,5	0,003
775	0,003
775,4	0,003
775,8	0,003
776,3	0,003
776,7	0,003
777,1	0,003
777,6	0,003
778	0,004
778,4	0,004
778,9	0,004
779,3	0,004
779,7	0,004
780,2	0,004
780,6	0,004
781	0,004
781,5	0,004
781,9	0,004
782,3	0,004
782,8	0,004
783,2	0,004
783,6	0,003
784,1	0,003
784,5	0,003
784,9	0,002
785,4	0,003
785,8	0,003
786,2	0,003
786,7	0,003
787,1	0,004
787,5	0,004
788	0,004
788,4	0,004
788,8	0,004
789,3	0,004
789,7	0,004
790,1	0,004
790,6	0,005
791	0,004
791,4	0,004
791,9	0,004
792,3	0,004
792,7	0,004
793,2	0,004
793,6	0,004
794	0,004
794,5	0,004
794,9	0,004
795,3	0,004
795,8	0,004
796,2	0,004
796,6	0,004
797,1	0,003
797,5	0,003
797,9	0,003
798,4	0,003
798,8	0,003
799,2	0,003
799,7	0,003
800,1	0,003
800,5	0,004
801	0,004
801,4	0,004
801,8	0,004
802,2	0,003
802,7	0,004
803,1	0,003
803,5	0,003
804	0,003
804,4	0,003
804,8	0,003
805,3	0,003
805,7	0,003
806,1	0,003
806,6	0,003
807	0,003
807,4	0,003
807,9	0,004
808,3	0,004
808,7	0,004
809,2	0,004
809,6	0,004
810	0,004
810,4	0,004
810,9	0,004
811,3	0,004
811,7	0,004
812,2	0,004
812,6	0,004
813	0,003
813,5	0,003
813,9	0,003
814,3	0,003
814,8	0,003
815,2	0,003
815,6	0,003
816,1	0,003
816,5	0,003
816,9	0,003
817,3	0,003
817,8	0,003
818,2	0,003
818,6	0,003
819,1	0,003
819,5	0,003
819,9	0,003
820,4	0,003
820,8	0,003
821,2	0,003
821,7	0,003
822,1	0,002
822,5	0,002
822,9	0,002
823,4	0,002
823,8	0,002
824,2	0,003
824,7	0,003
825,1	0,003
825,5	0,004
826	0,004
826,4	0,004
826,8	0,003
827,3	0,003
827,7	0,003
828,1	0,003
828,5	0,003
829	0,002
829,4	0,003
829,8	0,003
830,3	0,003
830,7	0,003
831,1	0,003
831,6	0,003
832	0,003
832,4	0,003
832,8	0,003
833,3	0,004
833,7	0,004
834,1	0,004
834,6	0,004
835	0,004
835,4	0,003
835,8	0,003
836,3	0,004
836,7	0,003
837,1	0,003
837,6	0,003
838	0,002
838,4	0,003
838,9	0,002
839,3	0,002
839,7	0,002
840,1	0,002
840,6	0,002
841	0,003
841,4	0,003
841,9	0,003
842,3	0,003
842,7	0,003
843,1	0,004
843,6	0,004
844	0,004
844,4	0,004
844,9	0,004
845,3	0,004
845,7	0,004
846,2	0,003
846,6	0,003
847	0,003
847,4	0,003
847,9	0,003
848,3	0,003
848,7	0,003
849,2	0,003
849,6	0,003
850	0,003
850,4	0,003
850,9	0,003
851,3	0,003
851,7	0,003
852,2	0,003
852,6	0,003
853	0,004
853,4	0,003
853,9	0,004
854,3	0,003
854,7	0,003
855,2	0,003
855,6	0,003
856	0,003
856,4	0,003
856,9	0,004
857,3	0,004
857,7	0,004
858,2	0,004
858,6	0,004
859	0,004
859,4	0,004
859,9	0,004
860,3	0,004
860,7	0,004
861,1	0,003
861,6	0,003
862	0,003
862,4	0,003
862,9	0,003
863,3	0,003
863,7	0,003
864,1	0,004
864,6	0,004
865	0,004
865,4	0,004
865,9	0,004
866,3	0,004
866,7	0,004
867,1	0,004
867,6	0,003
868	0,003
868,4	0,003
868,8	0,004
869,3	0,004
869,7	0,004
870,1	0,004
870,6	0,004
871	0,004
871,4	0,003
871,8	0,003
872,3	0,003
872,7	0,003
873,1	0,003
873,5	0,003
874	0,003
874,4	0,003
874,8	0,003
875,3	0,003
875,7	0,003
876,1	0,003
876,5	0,003
877	0,003
877,4	0,003
877,8	0,004
878,2	0,004
878,7	0,003
879,1	0,003
879,5	0,003
879,9	0,003
880,4	0,003
880,8	0,003
881,2	0,003
881,7	0,003
882,1	0,004
882,5	0,004
882,9	0,004
883,4	0,004
883,8	0,004
884,2	0,004
884,6	0,004
885,1	0,004
885,5	0,003
885,9	0,003
886,3	0,003
886,8	0,003
887,2	0,004
887,6	0,004
888	0,004
888,5	0,004
888,9	0,004
889,3	0,004
889,8	0,004
890,2	0,004
890,6	0,004
891	0,004
891,5	0,004
891,9	0,004
892,3	0,003
892,7	0,004
893,2	0,004
893,6	0,004
894	0,004
894,4	0,004
894,9	0,004
895,3	0,004
895,7	0,004
896,1	0,004
896,6	0,004
897	0,004
897,4	0,004
897,8	0,004
898,3	0,003
898,7	0,003
899,1	0,004
899,5	0,004
900	0,004
900,4	0,004
900,8	0,003
901,2	0,003
901,7	0,003
902,1	0,003
902,5	0,003
902,9	0,003
903,4	0,003
903,8	0,003
904,2	0,003
904,6	0,004
905,1	0,004
905,5	0,004
905,9	0,004
906,3	0,004
906,8	0,004
907,2	0,004
907,6	0,004
908	0,004
908,5	0,004
908,9	0,004
909,3	0,004
909,7	0,004
910,2	0,005
910,6	0,005
911	0,004
911,4	0,004
911,9	0,004
912,3	0,004
912,7	0,004
913,1	0,004
913,6	0,004
914	0,004
914,4	0,004
914,8	0,004
915,3	0,003
915,7	0,003
916,1	0,003
916,5	0,003
916,9	0,003
917,4	0,002
917,8	0,002
918,2	0,002
918,6	0,002
919,1	0,002
919,5	0,002
919,9	0,002
920,3	0,003
920,8	0,003
921,2	0,003
921,6	0,004
922	0,004
922,5	0,004
922,9	0,004
923,3	0,004
923,7	0,004
924,2	0,004
924,6	0,004
925	0,004
925,4	0,003
925,8	0,003
926,3	0,003
926,7	0,004
927,1	0,004
927,5	0,004
928	0,004
928,4	0,004
928,8	0,005
929,2	0,005
929,7	0,005
930,1	0,005
930,5	0,005
930,9	0,005
931,3	0,005
931,8	0,004
932,2	0,004
932,6	0,004
933	0,004
933,5	0,004
933,9	0,004
934,3	0,004
934,7	0,004
935,2	0,004
935,6	0,004
936	0,004
936,4	0,004
936,8	0,004
937,3	0,003
937,7	0,003
938,1	0,004
938,5	0,004
939	0,004
939,4	0,004
939,8	0,004
940,2	0,004
940,6	0,004
941,1	0,004
941,5	0,004
941,9	0,005
942,3	0,004
942,8	0,004
943,2	0,005
943,6	0,005
944	0,004
944,4	0,004
944,9	0,004
945,3	0,004
945,7	0,004
946,1	0,004
946,6	0,004
947	0,004
947,4	0,003
947,8	0,003
948,2	0,003
948,7	0,003
949,1	0,003
949,5	0,003
949,9	0,004
950,3	0,004
950,8	0,004
951,2	0,004
951,6	0,004
952	0,004
952,5	0,004
952,9	0,004
953,3	0,004
953,7	0,004
954,1	0,004
954,6	0,004
955	0,004
955,4	0,004
955,8	0,004
956,2	0,004
956,7	0,003
957,1	0,004
957,5	0,003
957,9	0,003
958,3	0,003
958,8	0,003
959,2	0,003
959,6	0,003
960	0,003
960,5	0,003
960,9	0,004
961,3	0,004
961,7	0,004
962,1	0,004
962,6	0,005
963	0,005
963,4	0,005
963,8	0,005
964,2	0,005
964,7	0,005
965,1	0,006
965,5	0,006
965,9	0,006
966,3	0,006
966,8	0,006
967,2	0,006
967,6	0,005
968	0,005
968,4	0,005
968,9	0,005
969,3	0,005
969,7	0,005
970,1	0,005
970,5	0,005
971	0,005
971,4	0,005
971,8	0,004
972,2	0,003
972,6	0,003
973,1	0,003
973,5	0,003
973,9	0,003
974,3	0,003
974,7	0,003
975,2	0,004
975,6	0,004
976	0,003
976,4	0,003
976,8	0,004
977,3	0,004
977,7	0,004
978,1	0,004
978,5	0,004
978,9	0,005
979,4	0,005
979,8	0,004
980,2	0,005
980,6	0,005
981	0,005
981,5	0,005
981,9	0,005
982,3	0,005
982,7	0,004
983,1	0,004
983,6	0,003
984	0,003
984,4	0,003
984,8	0,004
985,2	0,004
985,6	0,004
986,1	0,005
986,5	0,005
986,9	0,005
987,3	0,005
987,7	0,005
988,2	0,005
988,6	0,005
989	0,005
989,4	0,004
989,8	0,004
990,3	0,004
990,7	0,003
991,1	0,003
991,5	0,003
991,9	0,003
992,3	0,003
992,8	0,003
993,2	0,003
993,6	0,003
994	0,004
994,4	0,004
994,9	0,003
995,3	0,004
995,7	0,003
996,1	0,003
996,5	0,003
996,9	0,002
997,4	0,002
997,8	0,002
998,2	0,001
998,6	0,001
999	0,002
999,5	0,002
999,9	0,002
1000,3	0,002
1000,7	0,002
1001,1	0,003
1001,5	0,003
1002	0,003
1002,4	0,004
1002,8	0,004
1003,2	0,004
1003,6	0,004
1004	0,003
1004,5	0,003
1004,9	0,004
1005,3	0,004
1005,7	0,004
1006,1	0,004
1006,6	0,004
1007	0,004
1007,4	0,003
1007,8	0,003
1008,2	0,003
1008,6	0,003
1009,1	0,003
1009,5	0,003
1009,9	0,003
1010,3	0,003
1010,7	0,003
1011,1	0,003
1011,6	0,003
1012	0,004
1012,4	0,004
1012,8	0,004
1013,2	0,004
1013,6	0,004
1014,1	0,004
1014,5	0,004
1014,9	0,003
1015,3	0,004
1015,7	0,004
1016,1	0,004
1016,6	0,004
1017	0,004
1017,4	0,004
1017,8	0,004
1018,2	0,003
1018,6	0,003
1019,1	0,003
1019,5	0,003
1019,9	0,002
1020,3	0,002
1020,7	0,002
1021,1	0,002
1021,6	0,002
1022	0,002
1022,4	0,002
1022,8	0,002
1023,2	0,003
1023,6	0,004
1024,1	0,004
1024,5	0,004
1024,9	0,004
1025,3	0,004
1025,7	0,004
1026,1	0,004
1026,6	0,003
1027	0,003
1027,4	0,003
1027,8	0,003
1028,2	0,003
1028,6	0,002
1029	0,003
1029,5	0,003
1029,9	0,004
1030,3	0,004
1030,7	0,005
1031,1	0,005
1031,5	0,005
1032	0,005
1032,4	0,004
1032,8	0,005
1033,2	0,005
1033,6	0,004
1034	0,003
1034,4	0,003
1034,9	0,003
1035,3	0,003
1035,7	0,003
1036,1	0,003
1036,5	0,003
1036,9	0,003
1037,4	0,003
1037,8	0,003
1038,2	0,003
1038,6	0,003
1039	0,003
1039,4	0,002
1039,8	0,002
1040,3	0,002
1040,7	0,002
1041,1	0,002
1041,5	0,002
1041,9	0,003
1042,3	0,004
1042,7	0,004
1043,2	0,004
1043,6	0,004
1044	0,003
1044,4	0,003
1044,8	0,003
1045,2	0,002
1045,6	0,002
1046,1	0,002
1046,5	0,002
1046,9	0,002
1047,3	0,002
1047,7	0,002
1048,1	0,001
1048,5	0,001
1049	0,001
1049,4	0,001
1049,8	0,002
1050,2	0,002
1050,6	0,004
1051	0,005
1051,4	0,005
1051,9	0,004
1052,3	0,004
1052,7	0,004
1053,1	0,004
1053,5	0,004
1053,9	0,004
1054,3	0,004
1054,8	0,003
1055,2	0,004
1055,6	0,004
1056	0,004
1056,4	0,003
1056,8	0,003
1057,2	0,002
1057,6	0,002
1058,1	0,002
1058,5	0,001
1058,9	0,001
1059,3	0,002
1059,7	0,002
1060,1	0,001
1060,5	0,002
1061	0,002
1061,4	0,002
1061,8	0,003
1062,2	0,003
1062,6	0,003
1063	0,004
1063,4	0,003
1063,8	0,002
1064,3	0,002
1064,7	0,001
1065,1	0,001
1065,5	0
1065,9	-0,001
1066,3	0,001
1066,7	0,001
1067,1	0,001
1067,6	0,002
1068	0,002
1068,4	0,002
1068,8	0,002
1069,2	0,001
1069,6	0,002
1070	0,002
1070,4	0,003
1070,9	0,004
1071,3	0,004
1071,7	0,004
1072,1	0,003
1072,5	0,002
1072,9	0,002
1073,3	0,001
1073,7	0,001
1074,2	0,002
1074,6	0,002
1075	0,002
1075,4	0,002
1075,8	0,002
1076,2	0,002
1076,6	0,002
1077	0,001
1077,5	0,002
1077,9	0,002
1078,3	0,003
1078,7	0,004
1079,1	0,005
1079,5	0,004
1079,9	0,005
1080,3	0,004
1080,7	0,005
1081,2	0,004
1081,6	0,003
1082	0,003
1082,4	0,003
1082,8	0,001
1083,2	0,003
1083,6	0,001
1084	-0
1084,5	-0,002
1084,9	-0
1085,3	0,001
1085,7	0,001
1086,1	-0
1086,5	0,002
1086,9	0,003
1087,3	0,004
1087,7	0,004
1088,2	0,004
1088,6	0,003
1089	0,006
1089,4	0,006
1089,8	0,008
1090,2	0,008
1090,6	0,008
1091	0,005
1091,4	0,006
1091,9	0,004
1092,3	0,003
1092,7	0,005
1093,1	0,004
1093,5	0,001
1093,9	0,008
1094,3	0,007
1094,7	0,007
1095,1	0,008
1095,5	0,008
1096	0,011
1096,4	0,01
1096,8	-0
1097,2	0,003
1097,6	0,003
1098	0,002
1098,4	0,003
1098,8	0,001
1099,2	0,006
1099,6	0,015
1100,1	0,015
1100,5	0,016
1100,9	0,021
1101,3	0,013
1101,7	0,012
1102,1	0,014
1102,5	0,008
1102,9	-0,001
1103,3	-0,011
1103,7	-0,011
1104,2	-0,011
1104,6	-0,007
1105	-0,013
1105,4	-0,009
1105,8	-0,001
1106,2	0,013
1106,6	0,01
1107	0,02
1107,4	0,018
1107,8	0,036
1108,3	-0
