Data from Absorbance_205.txt Node
Date: Fri Nov 13 21:03:26 MSK 2020
User: vat
Spectrometer: MAYP114033
Trigger mode: 0
Integration Time (sec): 8,000000E-3
Scans to average: 10
Electric dark correction enabled: true
Nonlinearity correction enabled: false
Boxcar width: 3
XAxis mode: Wavelengths
Number of Pixels in Spectrum: 2068
>>>>>Begin Spectral Data<<<<<
199,4	-0,188
199,9	0,48
200,4	0,297
200,8	0,124
201,3	0,113
201,8	0,104
202,2	0,093
202,7	0,091
203,2	0,058
203,6	0,051
204,1	0,06
204,6	0,047
205	0,039
205,5	0,053
206	0,049
206,4	0,057
206,9	0,042
207,4	0,058
207,8	0,061
208,3	0,067
208,8	0,071
209,2	0,076
209,7	0,07
210,2	0,091
210,6	0,079
211,1	0,078
211,5	0,076
212	0,063
212,5	0,069
212,9	0,087
213,4	0,071
213,9	0,082
214,3	0,078
214,8	0,078
215,3	0,071
215,7	0,046
216,2	0,034
216,7	0,046
217,1	0,042
217,6	0,061
218,1	0,069
218,5	0,086
219	0,105
219,5	0,125
219,9	0,134
220,4	0,111
220,9	0,105
221,3	0,101
221,8	0,074
222,3	0,069
222,7	0,06
223,2	0,05
223,6	0,067
224,1	0,068
224,6	0,06
225	0,076
225,5	0,078
226	0,067
226,4	0,067
226,9	0,068
227,4	0,07
227,8	0,076
228,3	0,084
228,8	0,087
229,2	0,096
229,7	0,085
230,2	0,073
230,6	0,079
231,1	0,083
231,5	0,077
232	0,079
232,5	0,08
232,9	0,089
233,4	0,11
233,9	0,093
234,3	0,1
234,8	0,092
235,3	0,09
235,7	0,09
236,2	0,094
236,7	0,075
237,1	0,08
237,6	0,072
238,1	0,087
238,5	0,092
239	0,088
239,4	0,089
239,9	0,106
240,4	0,106
240,8	0,112
241,3	0,121
241,8	0,125
242,2	0,139
242,7	0,146
243,2	0,144
243,6	0,156
244,1	0,162
244,6	0,158
245	0,163
245,5	0,166
245,9	0,167
246,4	0,17
246,9	0,171
247,3	0,172
247,8	0,171
248,3	0,166
248,7	0,166
249,2	0,175
249,7	0,178
250,1	0,181
250,6	0,188
251	0,199
251,5	0,205
252	0,209
252,4	0,211
252,9	0,215
253,4	0,22
253,8	0,222
254,3	0,224
254,8	0,226
255,2	0,227
255,7	0,227
256,1	0,23
256,6	0,23
257,1	0,231
257,5	0,233
258	0,237
258,5	0,24
258,9	0,245
259,4	0,248
259,9	0,252
260,3	0,257
260,8	0,261
261,2	0,264
261,7	0,267
262,2	0,272
262,6	0,275
263,1	0,28
263,6	0,285
264	0,289
264,5	0,294
264,9	0,299
265,4	0,303
265,9	0,309
266,3	0,313
266,8	0,317
267,3	0,322
267,7	0,326
268,2	0,33
268,7	0,334
269,1	0,338
269,6	0,342
270	0,347
270,5	0,351
271	0,355
271,4	0,359
271,9	0,362
272,4	0,366
272,8	0,37
273,3	0,374
273,7	0,377
274,2	0,382
274,7	0,385
275,1	0,39
275,6	0,392
276,1	0,395
276,5	0,398
277	0,401
277,4	0,402
277,9	0,404
278,4	0,405
278,8	0,407
279,3	0,408
279,8	0,41
280,2	0,41
280,7	0,411
281,1	0,412
281,6	0,412
282,1	0,412
282,5	0,412
283	0,412
283,4	0,411
283,9	0,409
284,4	0,408
284,8	0,406
285,3	0,404
285,8	0,401
286,2	0,399
286,7	0,396
287,1	0,393
287,6	0,389
288,1	0,386
288,5	0,381
289	0,377
289,5	0,371
289,9	0,366
290,4	0,36
290,8	0,355
291,3	0,349
291,8	0,343
292,2	0,337
292,7	0,331
293,1	0,324
293,6	0,318
294,1	0,312
294,5	0,305
295	0,298
295,5	0,291
295,9	0,284
296,4	0,277
296,8	0,27
297,3	0,262
297,8	0,255
298,2	0,248
298,7	0,24
299,1	0,233
299,6	0,226
300,1	0,219
300,5	0,212
301	0,206
301,5	0,199
301,9	0,193
302,4	0,187
302,8	0,181
303,3	0,174
303,8	0,168
304,2	0,162
304,7	0,157
305,1	0,152
305,6	0,147
306,1	0,142
306,5	0,137
307	0,133
307,4	0,129
307,9	0,124
308,4	0,119
308,8	0,115
309,3	0,111
309,8	0,108
310,2	0,105
310,7	0,102
311,1	0,099
311,6	0,096
312,1	0,094
312,5	0,091
313	0,089
313,4	0,086
313,9	0,083
314,4	0,081
314,8	0,079
315,3	0,077
315,7	0,075
316,2	0,074
316,7	0,073
317,1	0,071
317,6	0,07
318	0,068
318,5	0,066
319	0,065
319,4	0,063
319,9	0,063
320,3	0,061
320,8	0,06
321,3	0,059
321,7	0,059
322,2	0,058
322,6	0,058
323,1	0,057
323,6	0,057
324	0,056
324,5	0,056
324,9	0,055
325,4	0,055
325,9	0,054
326,3	0,053
326,8	0,052
327,2	0,052
327,7	0,051
328,2	0,05
328,6	0,05
329,1	0,05
329,5	0,048
330	0,048
330,5	0,048
330,9	0,047
331,4	0,047
331,8	0,047
332,3	0,046
332,8	0,047
333,2	0,046
333,7	0,046
334,1	0,045
334,6	0,045
335,1	0,045
335,5	0,044
336	0,044
336,4	0,044
336,9	0,044
337,4	0,044
337,8	0,044
338,3	0,044
338,7	0,043
339,2	0,042
339,7	0,042
340,1	0,042
340,6	0,042
341	0,041
341,5	0,041
342	0,041
342,4	0,041
342,9	0,04
343,3	0,04
343,8	0,041
344,2	0,041
344,7	0,04
345,2	0,04
345,6	0,04
346,1	0,04
346,5	0,04
347	0,039
347,5	0,039
347,9	0,039
348,4	0,039
348,8	0,039
349,3	0,039
349,8	0,038
350,2	0,038
350,7	0,038
351,1	0,038
351,6	0,037
352	0,037
352,5	0,037
353	0,036
353,4	0,036
353,9	0,036
354,3	0,035
354,8	0,035
355,3	0,035
355,7	0,035
356,2	0,035
356,6	0,035
357,1	0,035
357,5	0,035
358	0,034
358,5	0,034
358,9	0,034
359,4	0,034
359,8	0,034
360,3	0,034
360,8	0,034
361,2	0,034
361,7	0,033
362,1	0,033
362,6	0,033
363	0,033
363,5	0,033
364	0,033
364,4	0,032
364,9	0,032
365,3	0,032
365,8	0,032
366,3	0,032
366,7	0,031
367,2	0,031
367,6	0,032
368,1	0,032
368,5	0,031
369	0,031
369,5	0,031
369,9	0,031
370,4	0,03
370,8	0,03
371,3	0,029
371,7	0,029
372,2	0,028
372,7	0,029
373,1	0,029
373,6	0,029
374	0,028
374,5	0,028
374,9	0,028
375,4	0,028
375,9	0,027
376,3	0,027
376,8	0,027
377,2	0,027
377,7	0,026
378,2	0,026
378,6	0,027
379,1	0,026
379,5	0,026
380	0,026
380,4	0,026
380,9	0,026
381,4	0,025
381,8	0,025
382,3	0,024
382,7	0,024
383,2	0,024
383,6	0,024
384,1	0,025
384,6	0,025
385	0,025
385,5	0,025
385,9	0,025
386,4	0,024
386,8	0,024
387,3	0,023
387,7	0,023
388,2	0,022
388,7	0,022
389,1	0,022
389,6	0,022
390	0,023
390,5	0,023
390,9	0,023
391,4	0,023
391,9	0,022
392,3	0,022
392,8	0,022
393,2	0,022
393,7	0,021
394,1	0,021
394,6	0,021
395,1	0,021
395,5	0,02
396	0,02
396,4	0,02
396,9	0,021
397,3	0,021
397,8	0,021
398,2	0,021
398,7	0,021
399,2	0,02
399,6	0,02
400,1	0,02
400,5	0,02
401	0,02
401,4	0,02
401,9	0,02
402,4	0,02
402,8	0,02
403,3	0,02
403,7	0,02
404,2	0,02
404,6	0,019
405,1	0,019
405,5	0,019
406	0,019
406,5	0,019
406,9	0,019
407,4	0,019
407,8	0,019
408,3	0,019
408,7	0,019
409,2	0,018
409,6	0,018
410,1	0,018
410,6	0,018
411	0,018
411,5	0,018
411,9	0,017
412,4	0,018
412,8	0,017
413,3	0,017
413,7	0,017
414,2	0,017
414,7	0,017
415,1	0,017
415,6	0,017
416	0,017
416,5	0,017
416,9	0,017
417,4	0,017
417,8	0,017
418,3	0,018
418,8	0,018
419,2	0,017
419,7	0,017
420,1	0,017
420,6	0,017
421	0,017
421,5	0,017
421,9	0,016
422,4	0,017
422,8	0,017
423,3	0,017
423,8	0,016
424,2	0,016
424,7	0,016
425,1	0,016
425,6	0,016
426	0,016
426,5	0,016
426,9	0,016
427,4	0,016
427,9	0,016
428,3	0,017
428,8	0,016
429,2	0,016
429,7	0,015
430,1	0,015
430,6	0,015
431	0,015
431,5	0,014
431,9	0,014
432,4	0,014
432,8	0,014
433,3	0,014
433,8	0,014
434,2	0,013
434,7	0,013
435,1	0,014
435,6	0,014
436	0,013
436,5	0,014
436,9	0,015
437,4	0,014
437,8	0,014
438,3	0,014
438,8	0,014
439,2	0,014
439,7	0,013
440,1	0,012
440,6	0,012
441	0,013
441,5	0,013
441,9	0,012
442,4	0,012
442,8	0,012
443,3	0,013
443,7	0,013
444,2	0,013
444,7	0,013
445,1	0,014
445,6	0,014
446	0,013
446,5	0,013
446,9	0,014
447,4	0,014
447,8	0,014
448,3	0,013
448,7	0,013
449,2	0,014
449,6	0,014
450,1	0,013
450,6	0,013
451	0,013
451,5	0,013
451,9	0,013
452,4	0,013
452,8	0,012
453,3	0,012
453,7	0,012
454,2	0,012
454,6	0,011
455,1	0,011
455,5	0,011
456	0,011
456,4	0,011
456,9	0,011
457,3	0,011
457,8	0,011
458,3	0,011
458,7	0,011
459,2	0,011
459,6	0,011
460,1	0,011
460,5	0,012
461	0,012
461,4	0,012
461,9	0,012
462,3	0,011
462,8	0,011
463,2	0,011
463,7	0,011
464,1	0,011
464,6	0,011
465	0,011
465,5	0,011
466	0,01
466,4	0,01
466,9	0,01
467,3	0,01
467,8	0,01
468,2	0,01
468,7	0,011
469,1	0,011
469,6	0,011
470	0,011
470,5	0,011
470,9	0,01
471,4	0,011
471,8	0,01
472,3	0,01
472,7	0,01
473,2	0,011
473,6	0,011
474,1	0,011
474,5	0,011
475	0,011
475,4	0,011
475,9	0,011
476,4	0,01
476,8	0,01
477,3	0,01
477,7	0,01
478,2	0,01
478,6	0,011
479,1	0,011
479,5	0,01
480	0,01
480,4	0,011
480,9	0,01
481,3	0,01
481,8	0,01
482,2	0,01
482,7	0,01
483,1	0,011
483,6	0,011
484	0,011
484,5	0,012
484,9	0,01
485,4	0,01
485,8	0,01
486,3	0,009
486,7	0,009
487,2	0,009
487,6	0,008
488,1	0,009
488,5	0,009
489	0,009
489,4	0,009
489,9	0,009
490,4	0,009
490,8	0,009
491,3	0,009
491,7	0,009
492,2	0,009
492,6	0,009
493,1	0,009
493,5	0,008
494	0,009
494,4	0,008
494,9	0,008
495,3	0,008
495,8	0,009
496,2	0,009
496,7	0,009
497,1	0,009
497,6	0,009
498	0,009
498,5	0,009
498,9	0,009
499,4	0,008
499,8	0,009
500,3	0,008
500,7	0,009
501,2	0,009
501,6	0,008
502,1	0,008
502,5	0,009
503	0,008
503,4	0,008
503,9	0,008
504,3	0,008
504,8	0,008
505,2	0,007
505,7	0,006
506,1	0,007
506,6	0,007
507	0,007
507,5	0,007
507,9	0,007
508,4	0,008
508,8	0,008
509,3	0,008
509,7	0,008
510,2	0,008
510,6	0,008
511,1	0,008
511,5	0,008
512	0,008
512,4	0,008
512,9	0,007
513,3	0,007
513,8	0,007
514,2	0,007
514,7	0,007
515,1	0,007
515,6	0,006
516	0,007
516,5	0,007
516,9	0,007
517,4	0,007
517,8	0,007
518,3	0,007
518,7	0,006
519,2	0,007
519,6	0,007
520,1	0,007
520,5	0,007
521	0,007
521,4	0,007
521,9	0,007
522,3	0,007
522,8	0,007
523,2	0,007
523,7	0,008
524,1	0,007
524,6	0,007
525	0,007
525,5	0,007
525,9	0,007
526,4	0,007
526,8	0,006
527,3	0,007
527,7	0,007
528,2	0,007
528,6	0,007
529,1	0,007
529,5	0,007
530	0,007
530,4	0,006
530,9	0,006
531,3	0,006
531,8	0,006
532,2	0,005
532,6	0,005
533,1	0,005
533,5	0,005
534	0,006
534,4	0,005
534,9	0,006
535,3	0,006
535,8	0,006
536,2	0,006
536,7	0,006
537,1	0,005
537,6	0,005
538	0,004
538,5	0,004
538,9	0,004
539,4	0,004
539,8	0,004
540,3	0,004
540,7	0,004
541,2	0,004
541,6	0,005
542,1	0,004
542,5	0,003
543	0,003
543,4	0,003
543,9	0,004
544,3	0,003
544,8	0,003
545,2	0,003
545,7	0,004
546,1	0,005
546,5	0,005
547	0,005
547,4	0,004
547,9	0,005
548,3	0,005
548,8	0,004
549,2	0,004
549,7	0,003
550,1	0,004
550,6	0,004
551	0,003
551,5	0,004
551,9	0,004
552,4	0,004
552,8	0,004
553,3	0,004
553,7	0,004
554,2	0,004
554,6	0,004
555,1	0,003
555,5	0,003
555,9	0,003
556,4	0,003
556,8	0,003
557,3	0,002
557,7	0,002
558,2	0,003
558,6	0,003
559,1	0,002
559,5	0,003
560	0,003
560,4	0,003
560,9	0,003
561,3	0,003
561,8	0,003
562,2	0,003
562,7	0,003
563,1	0,003
563,6	0,003
564	0,003
564,4	0,002
564,9	0,002
565,3	0,002
565,8	0,002
566,2	0,002
566,7	0,002
567,1	0,003
567,6	0,003
568	0,003
568,5	0,002
568,9	0,002
569,4	0,002
569,8	0,002
570,3	0,002
570,7	0,001
571,1	0,001
571,6	0,002
572	0,002
572,5	0,002
572,9	0,002
573,4	0,002
573,8	0,002
574,3	0,002
574,7	0,002
575,2	0,002
575,6	0,002
576,1	0,002
576,5	0,002
576,9	0,002
577,4	0,002
577,8	0,002
578,3	0,002
578,7	0,002
579,2	0,002
579,6	0,002
580,1	0,003
580,5	0,002
581	0,002
581,4	0,001
581,9	0,001
582,3	0,001
582,7	0,001
583,2	0
583,6	0
584,1	0
584,5	0
585	0
585,4	0,001
585,9	0,001
586,3	0
586,8	0,001
587,2	0,001
587,6	0,001
588,1	0,001
588,5	0,001
589	0,001
589,4	0,001
589,9	0,001
590,3	0,001
590,8	0,001
591,2	0,001
591,7	0,001
592,1	0,001
592,5	0,001
593	0,001
593,4	0,001
593,9	0,001
594,3	0
594,8	0
595,2	0,001
595,7	0,001
596,1	0
596,6	0
597	0
597,4	0
597,9	0
598,3	-0
598,8	-0
599,2	-0
599,7	-0
600,1	-0
600,6	-0,001
601	-0,001
601,4	-0
601,9	-0
602,3	-0
602,8	-0,001
603,2	-0,001
603,7	-0,001
604,1	-0
604,6	-0
605	-0,001
605,4	-0
605,9	-0
606,3	-0
606,8	-0
607,2	-0
607,7	-0
608,1	-0
608,6	0
609	0
609,4	0
609,9	0
610,3	0,001
610,8	0,001
611,2	0
611,7	0
612,1	-0
612,6	-0
613	-0
613,4	-0
613,9	-0
614,3	-0,001
614,8	-0,001
615,2	-0
615,7	-0
616,1	-0
616,6	-0
617	-0
617,4	0
617,9	0
618,3	0
618,8	-0
619,2	-0
619,7	-0
620,1	-0
620,5	-0
621	-0,001
621,4	-0,001
621,9	-0,001
622,3	-0,001
622,8	-0,001
623,2	-0,002
623,6	-0,002
624,1	-0,002
624,5	-0,001
625	-0,001
625,4	-0,001
625,9	-0,001
626,3	-0
626,8	-0,001
627,2	-0
627,6	-0,001
628,1	-0,001
628,5	-0,001
629	-0,001
629,4	-0,001
629,9	-0,001
630,3	-0,001
630,7	-0
631,2	-0,001
631,6	-0,001
632,1	-0,001
632,5	-0
633	-0
633,4	-0,001
633,8	-0,001
634,3	-0,001
634,7	-0,001
635,2	-0,001
635,6	-0,001
636,1	-0,001
636,5	-0,001
636,9	-0,001
637,4	-0,001
637,8	-0,002
638,3	-0,001
638,7	-0,002
639,2	-0,002
639,6	-0,002
640	-0,002
640,5	-0,002
640,9	-0,001
641,4	-0,001
641,8	-0,001
642,2	-0,001
642,7	-0,001
643,1	-0,001
643,6	-0
644	-0
644,5	-0
644,9	-0,001
645,3	-0,001
645,8	-0,001
646,2	-0,002
646,7	-0,002
647,1	-0,002
647,6	-0,002
648	-0,002
648,4	-0,002
648,9	-0,001
649,3	-0,001
649,8	-0
650,2	-0,001
650,6	-0,001
651,1	-0,001
651,5	-0,001
652	-0,001
652,4	-0,001
652,9	-0,001
653,3	0
653,7	0,002
654,2	0,002
654,6	0,001
655,1	0,001
655,5	-0,001
655,9	-0,001
656,4	-0,001
656,8	-0,002
657,3	-0,003
657,7	-0,004
658,2	-0,005
658,6	-0,002
659	-0,002
659,5	-0,001
659,9	-0,002
660,4	-0,002
660,8	-0,002
661,2	-0,002
661,7	-0,002
662,1	-0,001
662,6	-0,002
663	-0,002
663,4	-0,002
663,9	-0,003
664,3	-0,003
664,8	-0,003
665,2	-0,003
665,6	-0,003
666,1	-0,003
666,5	-0,003
667	-0,003
667,4	-0,002
667,9	-0,002
668,3	-0,002
668,7	-0,001
669,2	-0,002
669,6	-0,001
670,1	-0,001
670,5	-0,001
670,9	-0,001
671,4	-0,002
671,8	-0,002
672,3	-0,002
672,7	-0,002
673,1	-0,002
673,6	-0,002
674	-0,002
674,5	-0,002
674,9	-0,002
675,3	-0,003
675,8	-0,002
676,2	-0,002
676,7	-0,001
677,1	-0,001
677,5	-0,001
678	-0,001
678,4	-0
678,9	-0,001
679,3	-0,001
679,7	-0
680,2	-0
680,6	-0,001
681,1	-0,001
681,5	-0,001
681,9	-0,001
682,4	-0,001
682,8	-0,002
683,3	-0,002
683,7	-0,001
684,1	-0,002
684,6	-0,001
685	-0,002
685,5	-0,002
685,9	-0,002
686,3	-0,002
686,8	-0,002
687,2	-0,002
687,7	-0,002
688,1	-0,002
688,5	-0,002
689	-0,002
689,4	-0,002
689,9	-0,002
690,3	-0,002
690,7	-0,002
691,2	-0,002
691,6	-0,002
692	-0,002
692,5	-0,002
692,9	-0,002
693,4	-0,002
693,8	-0,002
694,2	-0,002
694,7	-0,002
695,1	-0,002
695,6	-0,002
696	-0,002
696,4	-0,002
696,9	-0,002
697,3	-0,003
697,8	-0,003
698,2	-0,003
698,6	-0,003
699,1	-0,003
699,5	-0,003
699,9	-0,003
700,4	-0,003
700,8	-0,002
701,3	-0,002
701,7	-0,002
702,1	-0,003
702,6	-0,002
703	-0,002
703,5	-0,002
703,9	-0,002
704,3	-0,002
704,8	-0,002
705,2	-0,002
705,6	-0,002
706,1	-0,002
706,5	-0,002
707	-0,002
707,4	-0,002
707,8	-0,003
708,3	-0,003
708,7	-0,003
709,2	-0,002
709,6	-0,002
710	-0,002
710,5	-0,002
710,9	-0,002
711,3	-0,002
711,8	-0,002
712,2	-0,002
712,7	-0,002
713,1	-0,002
713,5	-0,002
714	-0,002
714,4	-0,002
714,8	-0,002
715,3	-0,002
715,7	-0,002
716,2	-0,002
716,6	-0,002
717	-0,002
717,5	-0,002
717,9	-0,002
718,3	-0,002
718,8	-0,002
719,2	-0,002
719,7	-0,002
720,1	-0,002
720,5	-0,002
721	-0,002
721,4	-0,002
721,8	-0,002
722,3	-0,002
722,7	-0,002
723,2	-0,002
723,6	-0,002
724	-0,002
724,5	-0,002
724,9	-0,002
725,3	-0,001
725,8	-0,001
726,2	-0,001
726,7	-0,001
727,1	-0,002
727,5	-0,002
728	-0,002
728,4	-0,002
728,8	-0,002
729,3	-0,002
729,7	-0,002
730,1	-0,002
730,6	-0,002
731	-0,002
731,5	-0,002
731,9	-0,002
732,3	-0,002
732,8	-0,002
733,2	-0,002
733,6	-0,001
734,1	-0,001
734,5	-0,002
734,9	-0,001
735,4	-0,001
735,8	-0,001
736,3	-0,002
736,7	-0,002
737,1	-0,002
737,6	-0,002
738	-0,002
738,4	-0,003
738,9	-0,003
739,3	-0,003
739,7	-0,003
740,2	-0,003
740,6	-0,003
741,1	-0,003
741,5	-0,004
741,9	-0,003
742,4	-0,003
742,8	-0,003
743,2	-0,003
743,7	-0,003
744,1	-0,002
744,5	-0,002
745	-0,002
745,4	-0,002
745,8	-0,002
746,3	-0,002
746,7	-0,002
747,2	-0,002
747,6	-0,002
748	-0,002
748,5	-0,002
748,9	-0,002
749,3	-0,002
749,8	-0,002
750,2	-0,002
750,6	-0,002
751,1	-0,002
751,5	-0,002
751,9	-0,002
752,4	-0,002
752,8	-0,002
753,3	-0,003
753,7	-0,003
754,1	-0,003
754,6	-0,003
755	-0,003
755,4	-0,003
755,9	-0,002
756,3	-0,002
756,7	-0,002
757,2	-0,002
757,6	-0,002
758	-0,002
758,5	-0,002
758,9	-0,001
759,3	-0,001
759,8	-0,001
760,2	-0,001
760,6	-0,001
761,1	-0,001
761,5	-0,001
761,9	-0,001
762,4	-0,001
762,8	-0,001
763,3	-0,001
763,7	-0,002
764,1	-0,002
764,6	-0,002
765	-0,002
765,4	-0,003
765,9	-0,003
766,3	-0,003
766,7	-0,003
767,2	-0,003
767,6	-0,003
768	-0,004
768,5	-0,003
768,9	-0,003
769,3	-0,003
769,8	-0,003
770,2	-0,002
770,6	-0,002
771,1	-0,002
771,5	-0,001
771,9	-0,001
772,4	-0,001
772,8	-0
773,2	-0
773,7	-0
774,1	0
774,5	-0
775	-0
775,4	-0
775,8	-0
776,3	-0,001
776,7	-0
777,1	-0,001
777,6	-0,001
778	-0,001
778,4	-0,001
778,9	-0,001
779,3	-0,001
779,7	-0,001
780,2	-0,001
780,6	-0,001
781	-0
781,5	-0
781,9	-0
782,3	0
782,8	-0
783,2	-0
783,6	-0
784,1	-0,001
784,5	-0,001
784,9	-0,001
785,4	-0,001
785,8	-0,002
786,2	-0,002
786,7	-0,003
787,1	-0,003
787,5	-0,003
788	-0,003
788,4	-0,004
788,8	-0,003
789,3	-0,004
789,7	-0,003
790,1	-0,003
790,6	-0,003
791	-0,003
791,4	-0,003
791,9	-0,002
792,3	-0,002
792,7	-0,002
793,2	-0,002
793,6	-0,002
794	-0,002
794,5	-0,003
794,9	-0,003
795,3	-0,003
795,8	-0,002
796,2	-0,002
796,6	-0,002
797,1	-0,001
797,5	-0,001
797,9	-0,001
798,4	-0,001
798,8	-0,001
799,2	-0,001
799,7	-0,001
800,1	-0,001
800,5	-0,002
801	-0,002
801,4	-0,002
801,8	-0,002
802,2	-0,002
802,7	-0,002
803,1	-0,002
803,5	-0,002
804	-0,002
804,4	-0,002
804,8	-0,002
805,3	-0,002
805,7	-0,002
806,1	-0,002
806,6	-0,002
807	-0,002
807,4	-0,002
807,9	-0,002
808,3	-0,002
808,7	-0,002
809,2	-0,002
809,6	-0,002
810	-0,002
810,4	-0,002
810,9	-0,003
811,3	-0,003
811,7	-0,003
812,2	-0,003
812,6	-0,003
813	-0,003
813,5	-0,003
813,9	-0,003
814,3	-0,003
814,8	-0,003
815,2	-0,003
815,6	-0,003
816,1	-0,003
816,5	-0,003
816,9	-0,003
817,3	-0,003
817,8	-0,003
818,2	-0,003
818,6	-0,003
819,1	-0,002
819,5	-0,002
819,9	-0,002
820,4	-0,002
820,8	-0,002
821,2	-0,002
821,7	-0,001
822,1	-0,001
822,5	-0,001
822,9	-0,002
823,4	-0,002
823,8	-0,002
824,2	-0,002
824,7	-0,002
825,1	-0,003
825,5	-0,003
826	-0,003
826,4	-0,003
826,8	-0,003
827,3	-0,003
827,7	-0,003
828,1	-0,003
828,5	-0,002
829	-0,003
829,4	-0,003
829,8	-0,002
830,3	-0,002
830,7	-0,002
831,1	-0,002
831,6	-0,002
832	-0,003
832,4	-0,003
832,8	-0,003
833,3	-0,003
833,7	-0,003
834,1	-0,003
834,6	-0,003
835	-0,003
835,4	-0,002
835,8	-0,003
836,3	-0,002
836,7	-0,002
837,1	-0,002
837,6	-0,002
838	-0,002
838,4	-0,001
838,9	-0,001
839,3	-0,001
839,7	-0,001
840,1	-0,002
840,6	-0,002
841	-0,002
841,4	-0,002
841,9	-0,002
842,3	-0,002
842,7	-0,002
843,1	-0,002
843,6	-0,002
844	-0,002
844,4	-0,003
844,9	-0,003
845,3	-0,003
845,7	-0,003
846,2	-0,003
846,6	-0,003
847	-0,002
847,4	-0,002
847,9	-0,002
848,3	-0,001
848,7	-0,001
849,2	-0,001
849,6	-0,001
850	-0,001
850,4	-0,001
850,9	-0,001
851,3	-0
851,7	-0
852,2	-0
852,6	-0
853	-0
853,4	-0
853,9	-0,001
854,3	-0,001
854,7	-0,001
855,2	-0,001
855,6	-0,001
856	-0,001
856,4	-0,001
856,9	-0,001
857,3	-0,001
857,7	-0,001
858,2	-0,001
858,6	-0,001
859	-0
859,4	-0,001
859,9	-0,001
860,3	-0,001
860,7	-0,001
861,1	-0,001
861,6	-0,001
862	-0
862,4	-0
862,9	-0
863,3	-0
863,7	-0
864,1	-0,001
864,6	-0,001
865	-0,001
865,4	-0,001
865,9	-0,001
866,3	-0,001
866,7	-0,002
867,1	-0,002
867,6	-0,002
868	-0,003
868,4	-0,003
868,8	-0,003
869,3	-0,002
869,7	-0,002
870,1	-0,002
870,6	-0,002
871	-0,002
871,4	-0,002
871,8	-0,002
872,3	-0,003
872,7	-0,003
873,1	-0,003
873,5	-0,003
874	-0,003
874,4	-0,003
874,8	-0,003
875,3	-0,002
875,7	-0,002
876,1	-0,002
876,5	-0,002
877	-0,002
877,4	-0,002
877,8	-0,001
878,2	-0,001
878,7	-0,001
879,1	-0,002
879,5	-0,002
879,9	-0,002
880,4	-0,002
880,8	-0,002
881,2	-0,002
881,7	-0,002
882,1	-0,002
882,5	-0,002
882,9	-0,001
883,4	-0,001
883,8	-0,001
884,2	-0,002
884,6	-0,002
885,1	-0,002
885,5	-0,002
885,9	-0,002
886,3	-0,002
886,8	-0,002
887,2	-0,002
887,6	-0,002
888	-0,002
888,5	-0,002
888,9	-0,002
889,3	-0,001
889,8	-0,001
890,2	-0,002
890,6	-0,001
891	-0,002
891,5	-0,002
891,9	-0,002
892,3	-0,002
892,7	-0,002
893,2	-0,001
893,6	-0,001
894	-0,001
894,4	-0,001
894,9	-0,001
895,3	-0,002
895,7	-0,002
896,1	-0,002
896,6	-0,002
897	-0,002
897,4	-0,003
897,8	-0,003
898,3	-0,003
898,7	-0,003
899,1	-0,003
899,5	-0,003
900	-0,003
900,4	-0,002
900,8	-0,003
901,2	-0,003
901,7	-0,003
902,1	-0,003
902,5	-0,003
902,9	-0,004
903,4	-0,004
903,8	-0,004
904,2	-0,004
904,6	-0,004
905,1	-0,004
905,5	-0,003
905,9	-0,003
906,3	-0,002
906,8	-0,002
907,2	-0,003
907,6	-0,003
908	-0,003
908,5	-0,002
908,9	-0,002
909,3	-0,003
909,7	-0,002
910,2	-0,002
910,6	-0,002
911	-0,002
911,4	-0,002
911,9	-0,002
912,3	-0,002
912,7	-0,002
913,1	-0,001
913,6	-0,001
914	-0,001
914,4	-0,001
914,8	-0,001
915,3	-0,001
915,7	-0,001
916,1	-0,001
916,5	-0,001
916,9	-0,002
917,4	-0,002
917,8	-0,002
918,2	-0,002
918,6	-0,002
919,1	-0,002
919,5	-0,002
919,9	-0,002
920,3	-0,002
920,8	-0,002
921,2	-0,002
921,6	-0,002
922	-0,002
922,5	-0,003
922,9	-0,002
923,3	-0,002
923,7	-0,002
924,2	-0,002
924,6	-0,002
925	-0,002
925,4	-0,001
925,8	-0,001
926,3	-0,001
926,7	-0,001
927,1	-0,001
927,5	-0,001
928	-0,001
928,4	-0,001
928,8	-0,001
929,2	-0,001
929,7	-0,001
930,1	-0,001
930,5	-0,001
930,9	-0,001
931,3	-0,001
931,8	-0,002
932,2	-0,003
932,6	-0,003
933	-0,003
933,5	-0,003
933,9	-0,003
934,3	-0,003
934,7	-0,003
935,2	-0,003
935,6	-0,003
936	-0,003
936,4	-0,003
936,8	-0,003
937,3	-0,003
937,7	-0,003
938,1	-0,003
938,5	-0,004
939	-0,004
939,4	-0,003
939,8	-0,003
940,2	-0,003
940,6	-0,002
941,1	-0,001
941,5	-0,001
941,9	-0,001
942,3	-0
942,8	-0
943,2	-0
943,6	-0
944	-0,001
944,4	-0,001
944,9	-0,001
945,3	-0,001
945,7	-0
946,1	0
946,6	0
947	0,001
947,4	0,001
947,8	0,001
948,2	0,001
948,7	0,001
949,1	0
949,5	0
949,9	0
950,3	0
950,8	0
951,2	-0
951,6	0
952	0,001
952,5	0
952,9	0
953,3	0,001
953,7	0,001
954,1	0,001
954,6	0,001
955	0,001
955,4	0,001
955,8	0,001
956,2	0,001
956,7	0
957,1	0
957,5	0
957,9	0
958,3	0
958,8	0
959,2	-0
959,6	0
960	0
960,5	0,001
960,9	0,001
961,3	0,001
961,7	0,001
962,1	0,001
962,6	0,001
963	0,001
963,4	0,001
963,8	0
964,2	0
964,7	0
965,1	-0
965,5	-0
965,9	0
966,3	0,001
966,8	0,001
967,2	0,001
967,6	0,001
968	0,002
968,4	0,001
968,9	0,001
969,3	0,001
969,7	0
970,1	0
970,5	-0
971	-0
971,4	0
971,8	0
972,2	0
972,6	0,001
973,1	0,001
973,5	0,001
973,9	0,001
974,3	0,001
974,7	0
975,2	0
975,6	0
976	0
976,4	0,001
976,8	0,001
977,3	0,001
977,7	0,001
978,1	0,001
978,5	0,001
978,9	0
979,4	0
979,8	-0
980,2	-0
980,6	-0,001
981	-0
981,5	-0,001
981,9	-0,001
982,3	-0
982,7	0
983,1	0,001
983,6	0
984	-0
984,4	0,001
984,8	0
985,2	-0
985,6	-0,001
986,1	-0,001
986,5	-0,001
986,9	0
987,3	-0
987,7	-0
988,2	-0
988,6	0
989	-0,001
989,4	-0,001
989,8	-0,001
990,3	-0,001
990,7	-0,001
991,1	-0,001
991,5	-0,001
991,9	-0
992,3	-0
992,8	-0,001
993,2	-0,001
993,6	-0,001
994	-0,001
994,4	-0,001
994,9	-0,001
995,3	-0,001
995,7	-0
996,1	-0,001
996,5	-0,001
996,9	-0
997,4	-0
997,8	-0
998,2	-0,001
998,6	-0,001
999	-0,001
999,5	-0,002
999,9	-0,002
1000,3	-0,003
1000,7	-0,004
1001,1	-0,004
1001,5	-0,003
1002	-0,003
1002,4	-0,002
1002,8	-0,003
1003,2	-0,002
1003,6	-0,001
1004	-0,001
1004,5	-0,001
1004,9	-0,001
1005,3	-0
1005,7	-0
1006,1	-0,001
1006,6	-0,001
1007	-0
1007,4	-0,001
1007,8	-0,001
1008,2	-0,002
1008,6	-0,002
1009,1	-0,002
1009,5	-0,002
1009,9	-0,002
1010,3	-0,002
1010,7	-0,002
1011,1	-0,001
1011,6	-0,001
1012	-0,001
1012,4	-0,002
1012,8	-0,001
1013,2	-0,001
1013,6	-0,002
1014,1	-0,002
1014,5	-0,002
1014,9	-0,002
1015,3	-0,002
1015,7	-0,002
1016,1	-0,002
1016,6	-0,003
1017	-0,002
1017,4	-0,003
1017,8	-0,003
1018,2	-0,004
1018,6	-0,003
1019,1	-0,003
1019,5	-0,003
1019,9	-0,003
1020,3	-0,003
1020,7	-0,003
1021,1	-0,003
1021,6	-0,003
1022	-0,003
1022,4	-0,004
1022,8	-0,003
1023,2	-0,003
1023,6	-0,003
1024,1	-0,003
1024,5	-0,002
1024,9	-0,002
1025,3	-0,002
1025,7	-0,002
1026,1	-0,003
1026,6	-0,003
1027	-0,003
1027,4	-0,003
1027,8	-0,003
1028,2	-0,003
1028,6	-0,003
1029	-0,002
1029,5	-0,002
1029,9	-0,002
1030,3	-0,002
1030,7	-0,003
1031,1	-0,003
1031,5	-0,003
1032	-0,003
1032,4	-0,003
1032,8	-0,003
1033,2	-0,002
1033,6	-0,002
1034	-0,001
1034,4	-0,001
1034,9	-0,001
1035,3	-0,001
1035,7	-0,001
1036,1	-0,001
1036,5	-0,001
1036,9	-0,001
1037,4	-0
1037,8	0
1038,2	0
1038,6	-0
1039	-0
1039,4	0
1039,8	0
1040,3	0
1040,7	-0
1041,1	-0
1041,5	0
1041,9	0
1042,3	-0
1042,7	-0,001
1043,2	-0,001
1043,6	-0,001
1044	-0,001
1044,4	-0,001
1044,8	-0,001
1045,2	-0,001
1045,6	0
1046,1	0
1046,5	0
1046,9	0,001
1047,3	-0
1047,7	-0
1048,1	-0
1048,5	-0,001
1049	-0
1049,4	0
1049,8	0
1050,2	0,001
1050,6	0,001
1051	0
1051,4	-0,001
1051,9	-0,001
1052,3	-0,001
1052,7	-0,001
1053,1	-0,001
1053,5	-0,001
1053,9	-0
1054,3	-0
1054,8	-0,002
1055,2	-0,002
1055,6	-0,003
1056	-0,003
1056,4	-0,003
1056,8	-0,003
1057,2	-0,002
1057,6	-0,001
1058,1	0
1058,5	0
1058,9	0
1059,3	0,001
1059,7	0
1060,1	0
1060,5	-0
1061	-0
1061,4	-0,001
1061,8	-0,001
1062,2	-0,002
1062,6	-0,001
1063	-0,001
1063,4	-0,001
1063,8	-0,001
1064,3	0
1064,7	-0
1065,1	0,001
1065,5	0
1065,9	0,001
1066,3	0,001
1066,7	0,001
1067,1	-0
1067,6	-0
1068	-0
1068,4	-0
1068,8	-0,002
1069,2	-0,002
1069,6	-0,002
1070	-0,001
1070,4	-0,001
1070,9	-0,001
1071,3	-0
1071,7	0
1072,1	0
1072,5	0,002
1072,9	0,001
1073,3	0,001
1073,7	0,001
1074,2	0,001
1074,6	0,001
1075	0,001
1075,4	-0
1075,8	-0
1076,2	0
1076,6	-0,001
1077	0
1077,5	0
1077,9	-0
1078,3	0
1078,7	0
1079,1	0,001
1079,5	0,002
1079,9	0,002
1080,3	0,002
1080,7	0,002
1081,2	0,001
1081,6	0,001
1082	0,001
1082,4	0
1082,8	0
1083,2	0,002
1083,6	0,001
1084	0,002
1084,5	0,002
1084,9	0,003
1085,3	0,003
1085,7	0,005
1086,1	0,003
1086,5	0,003
1086,9	0,002
1087,3	0,001
1087,7	0
1088,2	-0
1088,6	-0,003
1089	-0,002
1089,4	0,001
1089,8	0,001
1090,2	0,001
1090,6	0,004
1091	0,007
1091,4	0,008
1091,9	0,005
1092,3	0,002
1092,7	0,003
1093,1	0,004
1093,5	-0,001
1093,9	-0,002
1094,3	-0,005
1094,7	0,002
1095,1	0,007
1095,5	0,008
1096	0,005
1096,4	0,009
1096,8	0,013
1097,2	0,019
1097,6	0,013
1098	0,007
1098,4	0,011
1098,8	0,017
1099,2	0,019
1099,6	0,016
1100,1	0,014
1100,5	0,022
1100,9	0,026
1101,3	0,025
1101,7	0,031
1102,1	0,03
1102,5	0,027
1102,9	0,033
1103,3	0,027
1103,7	0,026
1104,2	0,021
1104,6	0,013
1105	0,008
1105,4	0,008
1105,8	0,001
1106,2	0,004
1106,6	0,005
1107	0,001
1107,4	0,001
1107,8	-0,015
1108,3	-0,151
