Data from Absorbance_167.txt Node
Date: Fri Nov 13 20:10:33 MSK 2020
User: vat
Spectrometer: MAYP114033
Trigger mode: 0
Integration Time (sec): 8,000000E-3
Scans to average: 10
Electric dark correction enabled: true
Nonlinearity correction enabled: false
Boxcar width: 3
XAxis mode: Wavelengths
Number of Pixels in Spectrum: 2068
>>>>>Begin Spectral Data<<<<<
199,4	-0
199,9	0,834
200,4	0,369
200,8	0,145
201,3	0,073
201,8	0,065
202,2	0,068
202,7	0,057
203,2	0,046
203,6	0,04
204,1	0,063
204,6	0,072
205	0,071
205,5	0,073
206	0,075
206,4	0,072
206,9	0,068
207,4	0,062
207,8	0,059
208,3	0,044
208,8	0,037
209,2	0,038
209,7	0,032
210,2	0,033
210,6	0,033
211,1	0,033
211,5	0,041
212	0,038
212,5	0,048
212,9	0,057
213,4	0,054
213,9	0,038
214,3	0,037
214,8	0,039
215,3	0,047
215,7	0,033
216,2	0,024
216,7	0,027
217,1	0,036
217,6	0,031
218,1	0,019
218,5	0,009
219	0,009
219,5	0,017
219,9	0,013
220,4	0,017
220,9	0,019
221,3	0,022
221,8	0,033
222,3	0,042
222,7	0,043
223,2	0,048
223,6	0,043
224,1	0,052
224,6	0,068
225	0,067
225,5	0,056
226	0,059
226,4	0,06
226,9	0,058
227,4	0,056
227,8	0,054
228,3	0,054
228,8	0,08
229,2	0,069
229,7	0,065
230,2	0,058
230,6	0,045
231,1	0,05
231,5	0,038
232	0,012
232,5	0,014
232,9	0,024
233,4	0,048
233,9	0,053
234,3	0,059
234,8	0,061
235,3	0,063
235,7	0,075
236,2	0,074
236,7	0,064
237,1	0,075
237,6	0,065
238,1	0,072
238,5	0,081
239	0,068
239,4	0,057
239,9	0,059
240,4	0,053
240,8	0,056
241,3	0,064
241,8	0,063
242,2	0,071
242,7	0,086
243,2	0,091
243,6	0,097
244,1	0,096
244,6	0,099
245	0,102
245,5	0,108
245,9	0,109
246,4	0,111
246,9	0,112
247,3	0,114
247,8	0,106
248,3	0,113
248,7	0,11
249,2	0,116
249,7	0,12
250,1	0,12
250,6	0,122
251	0,125
251,5	0,128
252	0,131
252,4	0,13
252,9	0,13
253,4	0,133
253,8	0,134
254,3	0,137
254,8	0,138
255,2	0,14
255,7	0,143
256,1	0,144
256,6	0,145
257,1	0,148
257,5	0,148
258	0,151
258,5	0,153
258,9	0,155
259,4	0,158
259,9	0,161
260,3	0,164
260,8	0,168
261,2	0,171
261,7	0,174
262,2	0,178
262,6	0,182
263,1	0,185
263,6	0,188
264	0,191
264,5	0,195
264,9	0,198
265,4	0,201
265,9	0,204
266,3	0,207
266,8	0,211
267,3	0,215
267,7	0,218
268,2	0,221
268,7	0,225
269,1	0,229
269,6	0,234
270	0,238
270,5	0,241
271	0,244
271,4	0,248
271,9	0,251
272,4	0,255
272,8	0,258
273,3	0,261
273,7	0,264
274,2	0,268
274,7	0,271
275,1	0,274
275,6	0,276
276,1	0,278
276,5	0,281
277	0,284
277,4	0,286
277,9	0,288
278,4	0,289
278,8	0,292
279,3	0,293
279,8	0,294
280,2	0,295
280,7	0,296
281,1	0,297
281,6	0,297
282,1	0,297
282,5	0,297
283	0,297
283,4	0,296
283,9	0,295
284,4	0,294
284,8	0,293
285,3	0,291
285,8	0,289
286,2	0,288
286,7	0,286
287,1	0,283
287,6	0,282
288,1	0,279
288,5	0,277
289	0,274
289,5	0,271
289,9	0,266
290,4	0,263
290,8	0,259
291,3	0,255
291,8	0,25
292,2	0,246
292,7	0,241
293,1	0,236
293,6	0,231
294,1	0,226
294,5	0,221
295	0,216
295,5	0,21
295,9	0,205
296,4	0,2
296,8	0,195
297,3	0,189
297,8	0,184
298,2	0,179
298,7	0,173
299,1	0,168
299,6	0,162
300,1	0,157
300,5	0,152
301	0,147
301,5	0,142
301,9	0,137
302,4	0,132
302,8	0,127
303,3	0,122
303,8	0,118
304,2	0,113
304,7	0,109
305,1	0,105
305,6	0,102
306,1	0,098
306,5	0,095
307	0,091
307,4	0,088
307,9	0,085
308,4	0,083
308,8	0,079
309,3	0,077
309,8	0,075
310,2	0,073
310,7	0,07
311,1	0,068
311,6	0,065
312,1	0,063
312,5	0,061
313	0,059
313,4	0,057
313,9	0,055
314,4	0,054
314,8	0,052
315,3	0,05
315,7	0,049
316,2	0,048
316,7	0,046
317,1	0,046
317,6	0,045
318	0,044
318,5	0,043
319	0,042
319,4	0,04
319,9	0,04
320,3	0,039
320,8	0,039
321,3	0,038
321,7	0,037
322,2	0,037
322,6	0,037
323,1	0,037
323,6	0,036
324	0,036
324,5	0,035
324,9	0,035
325,4	0,035
325,9	0,034
326,3	0,034
326,8	0,034
327,2	0,033
327,7	0,034
328,2	0,034
328,6	0,033
329,1	0,033
329,5	0,032
330	0,032
330,5	0,032
330,9	0,032
331,4	0,031
331,8	0,031
332,3	0,031
332,8	0,031
333,2	0,03
333,7	0,03
334,1	0,03
334,6	0,03
335,1	0,029
335,5	0,029
336	0,029
336,4	0,029
336,9	0,028
337,4	0,028
337,8	0,027
338,3	0,027
338,7	0,028
339,2	0,028
339,7	0,028
340,1	0,028
340,6	0,028
341	0,028
341,5	0,028
342	0,028
342,4	0,027
342,9	0,027
343,3	0,027
343,8	0,027
344,2	0,027
344,7	0,027
345,2	0,027
345,6	0,027
346,1	0,027
346,5	0,027
347	0,027
347,5	0,027
347,9	0,027
348,4	0,026
348,8	0,026
349,3	0,026
349,8	0,026
350,2	0,026
350,7	0,025
351,1	0,025
351,6	0,024
352	0,024
352,5	0,024
353	0,024
353,4	0,024
353,9	0,024
354,3	0,024
354,8	0,024
355,3	0,024
355,7	0,024
356,2	0,023
356,6	0,023
357,1	0,023
357,5	0,023
358	0,023
358,5	0,023
358,9	0,024
359,4	0,023
359,8	0,024
360,3	0,024
360,8	0,024
361,2	0,024
361,7	0,024
362,1	0,023
362,6	0,023
363	0,023
363,5	0,023
364	0,023
364,4	0,022
364,9	0,022
365,3	0,022
365,8	0,023
366,3	0,022
366,7	0,022
367,2	0,021
367,6	0,021
368,1	0,021
368,5	0,021
369	0,021
369,5	0,02
369,9	0,02
370,4	0,02
370,8	0,021
371,3	0,021
371,7	0,021
372,2	0,021
372,7	0,021
373,1	0,022
373,6	0,022
374	0,021
374,5	0,021
374,9	0,021
375,4	0,021
375,9	0,021
376,3	0,021
376,8	0,02
377,2	0,02
377,7	0,02
378,2	0,02
378,6	0,02
379,1	0,02
379,5	0,02
380	0,019
380,4	0,019
380,9	0,019
381,4	0,018
381,8	0,018
382,3	0,018
382,7	0,017
383,2	0,018
383,6	0,018
384,1	0,018
384,6	0,018
385	0,019
385,5	0,019
385,9	0,019
386,4	0,019
386,8	0,019
387,3	0,019
387,7	0,019
388,2	0,02
388,7	0,019
389,1	0,019
389,6	0,019
390	0,019
390,5	0,018
390,9	0,018
391,4	0,018
391,9	0,018
392,3	0,018
392,8	0,018
393,2	0,018
393,7	0,018
394,1	0,018
394,6	0,018
395,1	0,018
395,5	0,017
396	0,017
396,4	0,017
396,9	0,017
397,3	0,017
397,8	0,017
398,2	0,016
398,7	0,016
399,2	0,017
399,6	0,016
400,1	0,016
400,5	0,016
401	0,016
401,4	0,016
401,9	0,016
402,4	0,016
402,8	0,016
403,3	0,016
403,7	0,016
404,2	0,016
404,6	0,016
405,1	0,016
405,5	0,016
406	0,016
406,5	0,015
406,9	0,015
407,4	0,015
407,8	0,015
408,3	0,015
408,7	0,015
409,2	0,015
409,6	0,015
410,1	0,015
410,6	0,015
411	0,015
411,5	0,015
411,9	0,016
412,4	0,016
412,8	0,015
413,3	0,016
413,7	0,016
414,2	0,016
414,7	0,016
415,1	0,016
415,6	0,016
416	0,016
416,5	0,016
416,9	0,017
417,4	0,016
417,8	0,017
418,3	0,017
418,8	0,017
419,2	0,017
419,7	0,017
420,1	0,016
420,6	0,016
421	0,016
421,5	0,016
421,9	0,015
422,4	0,015
422,8	0,015
423,3	0,015
423,8	0,015
424,2	0,014
424,7	0,014
425,1	0,014
425,6	0,014
426	0,014
426,5	0,013
426,9	0,014
427,4	0,014
427,9	0,014
428,3	0,013
428,8	0,013
429,2	0,013
429,7	0,013
430,1	0,014
430,6	0,014
431	0,014
431,5	0,014
431,9	0,015
432,4	0,015
432,8	0,015
433,3	0,015
433,8	0,016
434,2	0,015
434,7	0,015
435,1	0,015
435,6	0,015
436	0,014
436,5	0,014
436,9	0,014
437,4	0,014
437,8	0,014
438,3	0,013
438,8	0,013
439,2	0,014
439,7	0,014
440,1	0,014
440,6	0,014
441	0,014
441,5	0,015
441,9	0,015
442,4	0,014
442,8	0,014
443,3	0,014
443,7	0,014
444,2	0,014
444,7	0,014
445,1	0,014
445,6	0,014
446	0,014
446,5	0,014
446,9	0,014
447,4	0,014
447,8	0,013
448,3	0,013
448,7	0,014
449,2	0,013
449,6	0,013
450,1	0,013
450,6	0,013
451	0,013
451,5	0,013
451,9	0,013
452,4	0,014
452,8	0,014
453,3	0,014
453,7	0,014
454,2	0,014
454,6	0,014
455,1	0,014
455,5	0,013
456	0,013
456,4	0,013
456,9	0,013
457,3	0,012
457,8	0,012
458,3	0,012
458,7	0,012
459,2	0,013
459,6	0,012
460,1	0,013
460,5	0,013
461	0,013
461,4	0,013
461,9	0,013
462,3	0,013
462,8	0,013
463,2	0,013
463,7	0,013
464,1	0,013
464,6	0,012
465	0,012
465,5	0,012
466	0,012
466,4	0,012
466,9	0,012
467,3	0,012
467,8	0,012
468,2	0,012
468,7	0,012
469,1	0,012
469,6	0,012
470	0,012
470,5	0,012
470,9	0,011
471,4	0,012
471,8	0,012
472,3	0,011
472,7	0,012
473,2	0,012
473,6	0,012
474,1	0,013
474,5	0,012
475	0,012
475,4	0,012
475,9	0,012
476,4	0,012
476,8	0,012
477,3	0,012
477,7	0,012
478,2	0,011
478,6	0,012
479,1	0,012
479,5	0,012
480	0,012
480,4	0,012
480,9	0,012
481,3	0,012
481,8	0,012
482,2	0,012
482,7	0,011
483,1	0,011
483,6	0,012
484	0,012
484,5	0,011
484,9	0,011
485,4	0,011
485,8	0,011
486,3	0,011
486,7	0,011
487,2	0,011
487,6	0,01
488,1	0,011
488,5	0,011
489	0,011
489,4	0,012
489,9	0,011
490,4	0,011
490,8	0,012
491,3	0,012
491,7	0,012
492,2	0,012
492,6	0,012
493,1	0,012
493,5	0,013
494	0,012
494,4	0,011
494,9	0,011
495,3	0,01
495,8	0,01
496,2	0,01
496,7	0,01
497,1	0,01
497,6	0,01
498	0,011
498,5	0,011
498,9	0,011
499,4	0,01
499,8	0,01
500,3	0,01
500,7	0,01
501,2	0,01
501,6	0,01
502,1	0,01
502,5	0,01
503	0,01
503,4	0,01
503,9	0,01
504,3	0,011
504,8	0,011
505,2	0,011
505,7	0,01
506,1	0,01
506,6	0,01
507	0,009
507,5	0,009
507,9	0,009
508,4	0,009
508,8	0,01
509,3	0,01
509,7	0,009
510,2	0,009
510,6	0,009
511,1	0,01
511,5	0,009
512	0,009
512,4	0,009
512,9	0,009
513,3	0,009
513,8	0,009
514,2	0,009
514,7	0,009
515,1	0,01
515,6	0,01
516	0,009
516,5	0,009
516,9	0,009
517,4	0,009
517,8	0,009
518,3	0,009
518,7	0,009
519,2	0,009
519,6	0,009
520,1	0,009
520,5	0,009
521	0,009
521,4	0,009
521,9	0,009
522,3	0,009
522,8	0,008
523,2	0,008
523,7	0,008
524,1	0,008
524,6	0,008
525	0,008
525,5	0,008
525,9	0,008
526,4	0,008
526,8	0,009
527,3	0,009
527,7	0,009
528,2	0,008
528,6	0,008
529,1	0,008
529,5	0,008
530	0,007
530,4	0,007
530,9	0,008
531,3	0,008
531,8	0,008
532,2	0,008
532,6	0,008
533,1	0,008
533,5	0,008
534	0,008
534,4	0,008
534,9	0,008
535,3	0,008
535,8	0,008
536,2	0,008
536,7	0,008
537,1	0,008
537,6	0,008
538	0,009
538,5	0,009
538,9	0,009
539,4	0,009
539,8	0,009
540,3	0,009
540,7	0,009
541,2	0,008
541,6	0,009
542,1	0,008
542,5	0,008
543	0,008
543,4	0,007
543,9	0,007
544,3	0,007
544,8	0,006
545,2	0,006
545,7	0,006
546,1	0,007
546,5	0,007
547	0,007
547,4	0,007
547,9	0,007
548,3	0,007
548,8	0,007
549,2	0,007
549,7	0,007
550,1	0,006
550,6	0,006
551	0,007
551,5	0,007
551,9	0,007
552,4	0,006
552,8	0,006
553,3	0,006
553,7	0,006
554,2	0,005
554,6	0,006
555,1	0,006
555,5	0,006
555,9	0,006
556,4	0,006
556,8	0,006
557,3	0,006
557,7	0,006
558,2	0,006
558,6	0,006
559,1	0,006
559,5	0,006
560	0,005
560,4	0,005
560,9	0,005
561,3	0,005
561,8	0,006
562,2	0,005
562,7	0,006
563,1	0,006
563,6	0,006
564	0,006
564,4	0,006
564,9	0,006
565,3	0,006
565,8	0,006
566,2	0,006
566,7	0,006
567,1	0,006
567,6	0,007
568	0,006
568,5	0,006
568,9	0,007
569,4	0,007
569,8	0,007
570,3	0,006
570,7	0,006
571,1	0,006
571,6	0,006
572	0,006
572,5	0,006
572,9	0,006
573,4	0,006
573,8	0,006
574,3	0,006
574,7	0,006
575,2	0,006
575,6	0,006
576,1	0,005
576,5	0,005
576,9	0,005
577,4	0,005
577,8	0,005
578,3	0,005
578,7	0,005
579,2	0,005
579,6	0,006
580,1	0,006
580,5	0,006
581	0,005
581,4	0,005
581,9	0,005
582,3	0,005
582,7	0,005
583,2	0,005
583,6	0,005
584,1	0,005
584,5	0,005
585	0,006
585,4	0,006
585,9	0,006
586,3	0,005
586,8	0,005
587,2	0,005
587,6	0,005
588,1	0,005
588,5	0,005
589	0,005
589,4	0,005
589,9	0,005
590,3	0,006
590,8	0,006
591,2	0,005
591,7	0,006
592,1	0,006
592,5	0,006
593	0,005
593,4	0,005
593,9	0,005
594,3	0,005
594,8	0,005
595,2	0,005
595,7	0,005
596,1	0,005
596,6	0,004
597	0,005
597,4	0,004
597,9	0,005
598,3	0,005
598,8	0,005
599,2	0,004
599,7	0,005
600,1	0,005
600,6	0,005
601	0,005
601,4	0,005
601,9	0,005
602,3	0,005
602,8	0,005
603,2	0,005
603,7	0,005
604,1	0,005
604,6	0,004
605	0,004
605,4	0,004
605,9	0,004
606,3	0,004
606,8	0,004
607,2	0,004
607,7	0,004
608,1	0,004
608,6	0,004
609	0,004
609,4	0,004
609,9	0,004
610,3	0,004
610,8	0,004
611,2	0,004
611,7	0,004
612,1	0,004
612,6	0,004
613	0,004
613,4	0,004
613,9	0,004
614,3	0,004
614,8	0,004
615,2	0,004
615,7	0,004
616,1	0,004
616,6	0,004
617	0,004
617,4	0,004
617,9	0,004
618,3	0,004
618,8	0,004
619,2	0,004
619,7	0,004
620,1	0,004
620,5	0,004
621	0,004
621,4	0,004
621,9	0,004
622,3	0,005
622,8	0,005
623,2	0,004
623,6	0,004
624,1	0,004
624,5	0,004
625	0,004
625,4	0,004
625,9	0,004
626,3	0,004
626,8	0,004
627,2	0,004
627,6	0,004
628,1	0,004
628,5	0,004
629	0,004
629,4	0,004
629,9	0,004
630,3	0,003
630,7	0,003
631,2	0,003
631,6	0,003
632,1	0,003
632,5	0,003
633	0,003
633,4	0,004
633,8	0,004
634,3	0,004
634,7	0,004
635,2	0,004
635,6	0,004
636,1	0,004
636,5	0,003
636,9	0,003
637,4	0,003
637,8	0,002
638,3	0,002
638,7	0,002
639,2	0,002
639,6	0,002
640	0,003
640,5	0,003
640,9	0,004
641,4	0,004
641,8	0,003
642,2	0,003
642,7	0,003
643,1	0,003
643,6	0,003
644	0,002
644,5	0,003
644,9	0,003
645,3	0,003
645,8	0,003
646,2	0,003
646,7	0,003
647,1	0,003
647,6	0,003
648	0,003
648,4	0,003
648,9	0,003
649,3	0,003
649,8	0,003
650,2	0,003
650,6	0,003
651,1	0,003
651,5	0,003
652	0,003
652,4	0,002
652,9	0,002
653,3	0,003
653,7	0,006
654,2	0,004
654,6	0,003
655,1	0,002
655,5	0,002
655,9	0,002
656,4	0,001
656,8	-0
657,3	-0
657,7	0
658,2	0
658,6	0,002
659	0,002
659,5	0,002
659,9	0,002
660,4	0,002
660,8	0,002
661,2	0,002
661,7	0,002
662,1	0,002
662,6	0,002
663	0,002
663,4	0,002
663,9	0,002
664,3	0,002
664,8	0,002
665,2	0,002
665,6	0,002
666,1	0,003
666,5	0,003
667	0,003
667,4	0,003
667,9	0,003
668,3	0,003
668,7	0,003
669,2	0,003
669,6	0,002
670,1	0,002
670,5	0,003
670,9	0,003
671,4	0,003
671,8	0,003
672,3	0,002
672,7	0,002
673,1	0,002
673,6	0,002
674	0,002
674,5	0,002
674,9	0,002
675,3	0,002
675,8	0,003
676,2	0,003
676,7	0,003
677,1	0,003
677,5	0,003
678	0,003
678,4	0,003
678,9	0,002
679,3	0,002
679,7	0,002
680,2	0,002
680,6	0,002
681,1	0,002
681,5	0,002
681,9	0,002
682,4	0,002
682,8	0,002
683,3	0,002
683,7	0,002
684,1	0,002
684,6	0,002
685	0,002
685,5	0,002
685,9	0,002
686,3	0,002
686,8	0,002
687,2	0,002
687,7	0,002
688,1	0,002
688,5	0,002
689	0,002
689,4	0,002
689,9	0,003
690,3	0,003
690,7	0,003
691,2	0,003
691,6	0,002
692	0,002
692,5	0,002
692,9	0,002
693,4	0,001
693,8	0,001
694,2	0,002
694,7	0,002
695,1	0,002
695,6	0,003
696	0,003
696,4	0,003
696,9	0,003
697,3	0,003
697,8	0,003
698,2	0,003
698,6	0,003
699,1	0,002
699,5	0,002
699,9	0,002
700,4	0,002
700,8	0,002
701,3	0,002
701,7	0,002
702,1	0,002
702,6	0,001
703	0,002
703,5	0,002
703,9	0,002
704,3	0,002
704,8	0,002
705,2	0,003
705,6	0,003
706,1	0,003
706,5	0,003
707	0,003
707,4	0,003
707,8	0,003
708,3	0,002
708,7	0,002
709,2	0,002
709,6	0,002
710	0,002
710,5	0,002
710,9	0,002
711,3	0,002
711,8	0,001
712,2	0,001
712,7	0,001
713,1	0,001
713,5	0,002
714	0,002
714,4	0,002
714,8	0,002
715,3	0,002
715,7	0,002
716,2	0,002
716,6	0,002
717	0,002
717,5	0,002
717,9	0,002
718,3	0,002
718,8	0,002
719,2	0,002
719,7	0,003
720,1	0,003
720,5	0,003
721	0,002
721,4	0,002
721,8	0,002
722,3	0,002
722,7	0,002
723,2	0,002
723,6	0,002
724	0,002
724,5	0,002
724,9	0,002
725,3	0,002
725,8	0,003
726,2	0,003
726,7	0,002
727,1	0,002
727,5	0,002
728	0,002
728,4	0,002
728,8	0,002
729,3	0,003
729,7	0,003
730,1	0,003
730,6	0,003
731	0,003
731,5	0,003
731,9	0,003
732,3	0,002
732,8	0,002
733,2	0,002
733,6	0,002
734,1	0,002
734,5	0,002
734,9	0,001
735,4	0,002
735,8	0,002
736,3	0,002
736,7	0,002
737,1	0,002
737,6	0,002
738	0,002
738,4	0,002
738,9	0,002
739,3	0,002
739,7	0,002
740,2	0,002
740,6	0,001
741,1	0,001
741,5	0,001
741,9	0,001
742,4	0,001
742,8	0,001
743,2	0,001
743,7	0,001
744,1	0,001
744,5	0,001
745	0,001
745,4	0,002
745,8	0,001
746,3	0,002
746,7	0,002
747,2	0,002
747,6	0,002
748	0,002
748,5	0,002
748,9	0,002
749,3	0,002
749,8	0,002
750,2	0,002
750,6	0,002
751,1	0,002
751,5	0,002
751,9	0,002
752,4	0,002
752,8	0,002
753,3	0,002
753,7	0,002
754,1	0,002
754,6	0,002
755	0,002
755,4	0,002
755,9	0,002
756,3	0,001
756,7	0,001
757,2	0,001
757,6	0,002
758	0,002
758,5	0,002
758,9	0,002
759,3	0,002
759,8	0,002
760,2	0,002
760,6	0,002
761,1	0,002
761,5	0,002
761,9	0,002
762,4	0,002
762,8	0,002
763,3	0,002
763,7	0,002
764,1	0,002
764,6	0,002
765	0,002
765,4	0,002
765,9	0,001
766,3	0,002
766,7	0,001
767,2	0,002
767,6	0,002
768	0,002
768,5	0,002
768,9	0,003
769,3	0,002
769,8	0,003
770,2	0,002
770,6	0,002
771,1	0,002
771,5	0,002
771,9	0,002
772,4	0,002
772,8	0,002
773,2	0,002
773,7	0,002
774,1	0,002
774,5	0,001
775	0,001
775,4	0,001
775,8	0,001
776,3	0,001
776,7	0,001
777,1	0,001
777,6	0,001
778	0,001
778,4	0,001
778,9	0,001
779,3	0,001
779,7	0,001
780,2	0,001
780,6	0,002
781	0,002
781,5	0,002
781,9	0,002
782,3	0,002
782,8	0,002
783,2	0,001
783,6	0,001
784,1	0,001
784,5	0,001
784,9	0
785,4	0
785,8	0
786,2	0
786,7	0,001
787,1	0,001
787,5	0,001
788	0,001
788,4	0,002
788,8	0,002
789,3	0,002
789,7	0,002
790,1	0,002
790,6	0,002
791	0,002
791,4	0,002
791,9	0,001
792,3	0,001
792,7	0,002
793,2	0,002
793,6	0,002
794	0,003
794,5	0,003
794,9	0,003
795,3	0,003
795,8	0,003
796,2	0,003
796,6	0,003
797,1	0,002
797,5	0,002
797,9	0,002
798,4	0,002
798,8	0,002
799,2	0,002
799,7	0,001
800,1	0,001
800,5	0,001
801	0,001
801,4	0,001
801,8	0,001
802,2	0,001
802,7	0,002
803,1	0,002
803,5	0,002
804	0,002
804,4	0,002
804,8	0,002
805,3	0,002
805,7	0,002
806,1	0,002
806,6	0,001
807	0,002
807,4	0,002
807,9	0,002
808,3	0,002
808,7	0,002
809,2	0,002
809,6	0,002
810	0,002
810,4	0,002
810,9	0,002
811,3	0,002
811,7	0,002
812,2	0,002
812,6	0,002
813	0,001
813,5	0,001
813,9	0,001
814,3	0,001
814,8	0,001
815,2	0
815,6	0
816,1	0,001
816,5	0,001
816,9	0,001
817,3	0,001
817,8	0,001
818,2	0,001
818,6	0,001
819,1	0,001
819,5	0,001
819,9	0,001
820,4	0,001
820,8	0,001
821,2	0,001
821,7	0,001
822,1	0,001
822,5	0,001
822,9	0,001
823,4	0,002
823,8	0,001
824,2	0,002
824,7	0,001
825,1	0,002
825,5	0,002
826	0,002
826,4	0,001
826,8	0,001
827,3	0,001
827,7	0,001
828,1	0
828,5	0
829	0
829,4	0,001
829,8	0,001
830,3	0,001
830,7	0,001
831,1	0,001
831,6	0,001
832	0,001
832,4	0,001
832,8	0,001
833,3	0,001
833,7	0,002
834,1	0,001
834,6	0,001
835	0,001
835,4	0,001
835,8	0,001
836,3	0,001
836,7	0
837,1	-0
837,6	-0
838	-0
838,4	-0
838,9	-0
839,3	-0
839,7	-0
840,1	0
840,6	0
841	0
841,4	0,001
841,9	0,001
842,3	0,001
842,7	0,001
843,1	0,001
843,6	0,001
844	0,001
844,4	0,001
844,9	0,001
845,3	0,001
845,7	0,001
846,2	0
846,6	-0
847	-0
847,4	-0
847,9	-0,001
848,3	-0
848,7	-0
849,2	-0
849,6	0
850	0
850,4	0
850,9	0,001
851,3	0,001
851,7	0,001
852,2	0,001
852,6	0,001
853	0,002
853,4	0,002
853,9	0,002
854,3	0,002
854,7	0,001
855,2	0,001
855,6	0,001
856	0,001
856,4	0,002
856,9	0,002
857,3	0,002
857,7	0,002
858,2	0,002
858,6	0,002
859	0,002
859,4	0,002
859,9	0,002
860,3	0,002
860,7	0,002
861,1	0,001
861,6	0,001
862	0,001
862,4	0
862,9	0
863,3	0
863,7	0,001
864,1	0,001
864,6	0,001
865	0,002
865,4	0,002
865,9	0,002
866,3	0,002
866,7	0,002
867,1	0,002
867,6	0,002
868	0,002
868,4	0,002
868,8	0,003
869,3	0,002
869,7	0,002
870,1	0,002
870,6	0,002
871	0,002
871,4	0,001
871,8	0,001
872,3	0,001
872,7	0,001
873,1	0,001
873,5	0,001
874	0,001
874,4	0,001
874,8	0,001
875,3	0
875,7	0
876,1	0
876,5	0,001
877	0,001
877,4	0,001
877,8	0,001
878,2	0,001
878,7	0,001
879,1	0,001
879,5	0
879,9	0
880,4	0
880,8	0
881,2	0,001
881,7	0,001
882,1	0,001
882,5	0,002
882,9	0,002
883,4	0,002
883,8	0,002
884,2	0,002
884,6	0,002
885,1	0,001
885,5	0,001
885,9	0,001
886,3	0,001
886,8	0,001
887,2	0,001
887,6	0,001
888	0,001
888,5	0,001
888,9	0,002
889,3	0,002
889,8	0,002
890,2	0,002
890,6	0,002
891	0,002
891,5	0,002
891,9	0,002
892,3	0,002
892,7	0,002
893,2	0,002
893,6	0,001
894	0,001
894,4	0,001
894,9	0,001
895,3	0,001
895,7	0,001
896,1	0,001
896,6	0,001
897	0,002
897,4	0,001
897,8	0,001
898,3	0,001
898,7	0,001
899,1	0,001
899,5	0,001
900	0,001
900,4	0,002
900,8	0,002
901,2	0,002
901,7	0,002
902,1	0,001
902,5	0,001
902,9	0,001
903,4	0,001
903,8	0,001
904,2	0,001
904,6	0,001
905,1	0,001
905,5	0,002
905,9	0,002
906,3	0,002
906,8	0,002
907,2	0,002
907,6	0,002
908	0,002
908,5	0,002
908,9	0,002
909,3	0,002
909,7	0,002
910,2	0,001
910,6	0,002
911	0,001
911,4	0,001
911,9	0,001
912,3	0,001
912,7	0,001
913,1	0,001
913,6	0,001
914	0,001
914,4	0
914,8	0
915,3	0
915,7	0
916,1	0,001
916,5	0,001
916,9	0,001
917,4	0,001
917,8	0,001
918,2	0,001
918,6	0
919,1	0
919,5	-0
919,9	-0
920,3	-0
920,8	-0
921,2	0
921,6	0,001
922	0,001
922,5	0,002
922,9	0,002
923,3	0,002
923,7	0,002
924,2	0,002
924,6	0,002
925	0,001
925,4	0,001
925,8	0,001
926,3	0,001
926,7	0,001
927,1	0,001
927,5	0,001
928	0,001
928,4	0,001
928,8	0,001
929,2	0,001
929,7	0,001
930,1	0,001
930,5	0,001
930,9	0,001
931,3	0,001
931,8	0,001
932,2	0,002
932,6	0,001
933	0,002
933,5	0,002
933,9	0,002
934,3	0,002
934,7	0,001
935,2	0,001
935,6	0,001
936	0,001
936,4	0,001
936,8	0
937,3	0
937,7	0
938,1	0,001
938,5	0,001
939	0,001
939,4	0,001
939,8	0,001
940,2	0,001
940,6	0,001
941,1	0,001
941,5	0
941,9	0,001
942,3	0,001
942,8	0,001
943,2	0,001
943,6	0,001
944	0,001
944,4	0,001
944,9	0,001
945,3	0,001
945,7	0,001
946,1	0
946,6	0
947	0
947,4	-0
947,8	0
948,2	0
948,7	0,001
949,1	0,001
949,5	0,002
949,9	0,002
950,3	0,002
950,8	0,003
951,2	0,003
951,6	0,002
952	0,002
952,5	0,002
952,9	0,002
953,3	0,003
953,7	0,003
954,1	0,003
954,6	0,003
955	0,002
955,4	0,002
955,8	0,002
956,2	0,002
956,7	0,001
957,1	0,001
957,5	0,001
957,9	0,001
958,3	0,001
958,8	0,001
959,2	0,001
959,6	0,002
960	0,002
960,5	0,002
960,9	0,002
961,3	0,003
961,7	0,003
962,1	0,002
962,6	0,003
963	0,003
963,4	0,003
963,8	0,003
964,2	0,003
964,7	0,003
965,1	0,003
965,5	0,003
965,9	0,003
966,3	0,003
966,8	0,003
967,2	0,002
967,6	0,002
968	0,002
968,4	0,002
968,9	0,002
969,3	0,002
969,7	0,002
970,1	0,002
970,5	0,003
971	0,002
971,4	0,002
971,8	0,002
972,2	0,001
972,6	0,001
973,1	0,001
973,5	0
973,9	-0
974,3	0,001
974,7	0
975,2	0,001
975,6	0,001
976	0,001
976,4	0,001
976,8	0,001
977,3	0,001
977,7	0,001
978,1	0,001
978,5	0
978,9	0
979,4	0,001
979,8	0
980,2	0,001
980,6	0,001
981	0,001
981,5	0,001
981,9	0,001
982,3	0,001
982,7	0,001
983,1	0,001
983,6	0,001
984	0,001
984,4	0,001
984,8	0,001
985,2	0,001
985,6	0,001
986,1	0,002
986,5	0,003
986,9	0,003
987,3	0,003
987,7	0,003
988,2	0,003
988,6	0,003
989	0,002
989,4	0,002
989,8	0,002
990,3	0,001
990,7	0,001
991,1	0
991,5	0
991,9	0,001
992,3	0,001
992,8	0,001
993,2	0,001
993,6	0,001
994	0,001
994,4	0,001
994,9	0,001
995,3	0,001
995,7	0,001
996,1	0,001
996,5	0,001
996,9	0,001
997,4	0,001
997,8	0,001
998,2	0,001
998,6	0,001
999	0,001
999,5	0,001
999,9	0
1000,3	0
1000,7	0,001
1001,1	0,001
1001,5	0,002
1002	0,002
1002,4	0,002
1002,8	0,002
1003,2	0,002
1003,6	0,001
1004	0,001
1004,5	0,001
1004,9	0,001
1005,3	0,001
1005,7	0,001
1006,1	0,001
1006,6	0,001
1007	0,001
1007,4	0
1007,8	0,001
1008,2	0
1008,6	-0,001
1009,1	-0,001
1009,5	-0,001
1009,9	-0
1010,3	-0
1010,7	0
1011,1	0,001
1011,6	0,002
1012	0,002
1012,4	0,003
1012,8	0,003
1013,2	0,003
1013,6	0,003
1014,1	0,002
1014,5	0,002
1014,9	0,002
1015,3	0,002
1015,7	0,002
1016,1	0,002
1016,6	0,002
1017	0,002
1017,4	0,003
1017,8	0,002
1018,2	0,002
1018,6	0,001
1019,1	0,001
1019,5	0,001
1019,9	0,001
1020,3	-0
1020,7	0
1021,1	0,001
1021,6	0,001
1022	0,001
1022,4	0,001
1022,8	0,002
1023,2	0,003
1023,6	0,003
1024,1	0,002
1024,5	0,002
1024,9	0,003
1025,3	0,002
1025,7	0,002
1026,1	0,001
1026,6	0,001
1027	0,001
1027,4	0,001
1027,8	0,001
1028,2	0,001
1028,6	0,002
1029	0,001
1029,5	0,001
1029,9	0,001
1030,3	0,002
1030,7	0,002
1031,1	0,002
1031,5	0,001
1032	0,002
1032,4	0,001
1032,8	0,001
1033,2	0,002
1033,6	0,001
1034	0
1034,4	0,001
1034,9	0,001
1035,3	0,001
1035,7	0,001
1036,1	0,001
1036,5	0,001
1036,9	0,001
1037,4	0,001
1037,8	0,001
1038,2	0,002
1038,6	0,002
1039	0,001
1039,4	0,001
1039,8	0,001
1040,3	0,001
1040,7	0,001
1041,1	0
1041,5	0,001
1041,9	0,001
1042,3	0,002
1042,7	0,001
1043,2	0,002
1043,6	0,002
1044	0,002
1044,4	0,001
1044,8	0,001
1045,2	0
1045,6	0,001
1046,1	0,001
1046,5	0,001
1046,9	0,001
1047,3	0,001
1047,7	-0
1048,1	-0
1048,5	-0
1049	-0
1049,4	-0
1049,8	-0
1050,2	-0
1050,6	0,001
1051	0,002
1051,4	0,002
1051,9	0,002
1052,3	0,002
1052,7	0,002
1053,1	0,002
1053,5	0,002
1053,9	0,001
1054,3	0,001
1054,8	0,001
1055,2	0,001
1055,6	0,002
1056	0,002
1056,4	0,001
1056,8	0,002
1057,2	0,002
1057,6	0,003
1058,1	0,004
1058,5	0,004
1058,9	0,004
1059,3	0,004
1059,7	0,004
1060,1	0,003
1060,5	0,004
1061	0,003
1061,4	0,002
1061,8	0,002
1062,2	0,002
1062,6	0,001
1063	0,002
1063,4	0,001
1063,8	0,001
1064,3	0,002
1064,7	0,001
1065,1	0,001
1065,5	0,001
1065,9	0
1066,3	0
1066,7	-0
1067,1	0
1067,6	0,001
1068	0,001
1068,4	0,001
1068,8	0,002
1069,2	0,002
1069,6	0,004
1070	0,004
1070,4	0,005
1070,9	0,005
1071,3	0,005
1071,7	0,005
1072,1	0,004
1072,5	0,004
1072,9	0,002
1073,3	0,001
1073,7	0,001
1074,2	0,001
1074,6	0,001
1075	0,001
1075,4	-0
1075,8	0
1076,2	-0,001
1076,6	-0,001
1077	-0,002
1077,5	-0,001
1077,9	0
1078,3	0,001
1078,7	0,002
1079,1	0,004
1079,5	0,003
1079,9	0,005
1080,3	0,005
1080,7	0,005
1081,2	0,006
1081,6	0,005
1082	0,004
1082,4	0,006
1082,8	0,007
1083,2	0,008
1083,6	0,007
1084	0,005
1084,5	0,004
1084,9	0,008
1085,3	0,007
1085,7	0,006
1086,1	0,005
1086,5	0,006
1086,9	0,006
1087,3	0,009
1087,7	0,006
1088,2	0,006
1088,6	0,006
1089	0,008
1089,4	0,006
1089,8	0,008
1090,2	0,006
1090,6	0,006
1091	0,008
1091,4	0,006
1091,9	0,002
1092,3	0,002
1092,7	0,001
1093,1	0,002
1093,5	-0,003
1093,9	-0,001
1094,3	-0,002
1094,7	-0,003
1095,1	-0
1095,5	-0,004
1096	-0,002
1096,4	0
1096,8	-0,006
1097,2	-0
1097,6	0,002
1098	0,002
1098,4	0,002
1098,8	0,001
1099,2	0,008
1099,6	0,019
1100,1	0,017
1100,5	0,024
1100,9	0,021
1101,3	0,028
1101,7	0,023
1102,1	0,019
1102,5	0,009
1102,9	0,001
1103,3	-0,007
1103,7	-0,001
1104,2	0
1104,6	0,004
1105	-0,004
1105,4	0,001
1105,8	0,017
1106,2	0,016
1106,6	0,014
1107	0,01
1107,4	-0,001
1107,8	0,022
1108,3	0,102
