Data from Absorbance_027.txt Node
Date: Fri Nov 13 13:02:41 MSK 2020
User: vat
Spectrometer: MAYP114033
Trigger mode: 0
Integration Time (sec): 8,000000E-3
Scans to average: 10
Electric dark correction enabled: true
Nonlinearity correction enabled: false
Boxcar width: 3
XAxis mode: Wavelengths
Number of Pixels in Spectrum: 2068
>>>>>Begin Spectral Data<<<<<
199,4	-0
199,9	0,38
200,4	0,156
200,8	0,082
201,3	0,033
201,8	0,052
202,2	0,044
202,7	0,038
203,2	0,043
203,6	0,054
204,1	0,062
204,6	0,049
205	0,037
205,5	0,026
206	0,038
206,4	0,025
206,9	0,007
207,4	-0,011
207,8	0,01
208,3	0,015
208,8	0,032
209,2	0,037
209,7	0,038
210,2	0,044
210,6	0,05
211,1	0,037
211,5	0,034
212	0,031
212,5	0,015
212,9	0,021
213,4	0,021
213,9	0,023
214,3	0,03
214,8	0,034
215,3	0,032
215,7	0,031
216,2	0,03
216,7	0,032
217,1	0,032
217,6	0,04
218,1	0,059
218,5	0,061
219	0,065
219,5	0,077
219,9	0,064
220,4	0,07
220,9	0,063
221,3	0,046
221,8	0,039
222,3	0,04
222,7	0,023
223,2	0,036
223,6	0,044
224,1	0,044
224,6	0,051
225	0,052
225,5	0,044
226	0,049
226,4	0,048
226,9	0,033
227,4	0,05
227,8	0,04
228,3	0,046
228,8	0,053
229,2	0,055
229,7	0,051
230,2	0,07
230,6	0,051
231,1	0,061
231,5	0,067
232	0,083
232,5	0,086
232,9	0,084
233,4	0,082
233,9	0,084
234,3	0,077
234,8	0,072
235,3	0,062
235,7	0,064
236,2	0,074
236,7	0,084
237,1	0,092
237,6	0,099
238,1	0,107
238,5	0,126
239	0,128
239,4	0,13
239,9	0,125
240,4	0,132
240,8	0,155
241,3	0,169
241,8	0,151
242,2	0,156
242,7	0,15
243,2	0,151
243,6	0,16
244,1	0,141
244,6	0,137
245	0,154
245,5	0,167
245,9	0,196
246,4	0,216
246,9	0,224
247,3	0,246
247,8	0,259
248,3	0,278
248,7	0,291
249,2	0,294
249,7	0,31
250,1	0,327
250,6	0,348
251	0,356
251,5	0,364
252	0,374
252,4	0,389
252,9	0,398
253,4	0,407
253,8	0,413
254,3	0,427
254,8	0,441
255,2	0,453
255,7	0,464
256,1	0,478
256,6	0,491
257,1	0,505
257,5	0,519
258	0,532
258,5	0,549
258,9	0,565
259,4	0,58
259,9	0,597
260,3	0,616
260,8	0,634
261,2	0,653
261,7	0,67
262,2	0,688
262,6	0,708
263,1	0,728
263,6	0,749
264	0,77
264,5	0,791
264,9	0,812
265,4	0,835
265,9	0,856
266,3	0,877
266,8	0,898
267,3	0,92
267,7	0,94
268,2	0,962
268,7	0,982
269,1	1,002
269,6	1,023
270	1,042
270,5	1,063
271	1,084
271,4	1,103
271,9	1,125
272,4	1,144
272,8	1,164
273,3	1,183
273,7	1,202
274,2	1,219
274,7	1,238
275,1	1,256
275,6	1,273
276,1	1,287
276,5	1,304
277	1,315
277,4	1,329
277,9	1,341
278,4	1,35
278,8	1,361
279,3	1,369
279,8	1,377
280,2	1,386
280,7	1,391
281,1	1,395
281,6	1,398
282,1	1,4
282,5	1,403
283	1,402
283,4	1,402
283,9	1,399
284,4	1,399
284,8	1,396
285,3	1,392
285,8	1,382
286,2	1,376
286,7	1,364
287,1	1,354
287,6	1,34
288,1	1,327
288,5	1,311
289	1,297
289,5	1,28
289,9	1,261
290,4	1,242
290,8	1,22
291,3	1,198
291,8	1,176
292,2	1,153
292,7	1,129
293,1	1,104
293,6	1,078
294,1	1,052
294,5	1,025
295	0,998
295,5	0,971
295,9	0,942
296,4	0,914
296,8	0,885
297,3	0,858
297,8	0,829
298,2	0,799
298,7	0,77
299,1	0,741
299,6	0,712
300,1	0,685
300,5	0,657
301	0,629
301,5	0,602
301,9	0,576
302,4	0,55
302,8	0,526
303,3	0,501
303,8	0,478
304,2	0,455
304,7	0,433
305,1	0,412
305,6	0,391
306,1	0,372
306,5	0,353
307	0,335
307,4	0,318
307,9	0,302
308,4	0,285
308,8	0,27
309,3	0,256
309,8	0,242
310,2	0,23
310,7	0,218
311,1	0,206
311,6	0,195
312,1	0,185
312,5	0,175
313	0,166
313,4	0,157
313,9	0,149
314,4	0,142
314,8	0,135
315,3	0,128
315,7	0,122
316,2	0,116
316,7	0,11
317,1	0,105
317,6	0,1
318	0,095
318,5	0,091
319	0,087
319,4	0,084
319,9	0,08
320,3	0,076
320,8	0,073
321,3	0,07
321,7	0,067
322,2	0,065
322,6	0,062
323,1	0,06
323,6	0,059
324	0,057
324,5	0,055
324,9	0,054
325,4	0,052
325,9	0,051
326,3	0,05
326,8	0,048
327,2	0,046
327,7	0,045
328,2	0,044
328,6	0,043
329,1	0,041
329,5	0,04
330	0,039
330,5	0,039
330,9	0,038
331,4	0,037
331,8	0,036
332,3	0,035
332,8	0,034
333,2	0,034
333,7	0,033
334,1	0,032
334,6	0,032
335,1	0,031
335,5	0,031
336	0,03
336,4	0,03
336,9	0,029
337,4	0,028
337,8	0,027
338,3	0,027
338,7	0,027
339,2	0,026
339,7	0,025
340,1	0,024
340,6	0,024
341	0,024
341,5	0,023
342	0,023
342,4	0,023
342,9	0,022
343,3	0,022
343,8	0,022
344,2	0,022
344,7	0,021
345,2	0,021
345,6	0,021
346,1	0,02
346,5	0,02
347	0,02
347,5	0,019
347,9	0,019
348,4	0,018
348,8	0,018
349,3	0,018
349,8	0,017
350,2	0,017
350,7	0,016
351,1	0,016
351,6	0,015
352	0,015
352,5	0,014
353	0,014
353,4	0,014
353,9	0,015
354,3	0,015
354,8	0,015
355,3	0,015
355,7	0,015
356,2	0,014
356,6	0,014
357,1	0,014
357,5	0,014
358	0,014
358,5	0,013
358,9	0,013
359,4	0,012
359,8	0,012
360,3	0,011
360,8	0,011
361,2	0,011
361,7	0,011
362,1	0,01
362,6	0,01
363	0,01
363,5	0,01
364	0,009
364,4	0,009
364,9	0,009
365,3	0,008
365,8	0,008
366,3	0,008
366,7	0,008
367,2	0,007
367,6	0,007
368,1	0,007
368,5	0,006
369	0,006
369,5	0,006
369,9	0,006
370,4	0,006
370,8	0,005
371,3	0,005
371,7	0,005
372,2	0,005
372,7	0,005
373,1	0,004
373,6	0,005
374	0,005
374,5	0,004
374,9	0,004
375,4	0,003
375,9	0,003
376,3	0,003
376,8	0,003
377,2	0,003
377,7	0,003
378,2	0,003
378,6	0,002
379,1	0,002
379,5	0,002
380	0,001
380,4	0,001
380,9	0
381,4	0
381,8	-0,001
382,3	-0,001
382,7	-0,001
383,2	-0,001
383,6	-0,001
384,1	-0,001
384,6	-0,001
385	-0
385,5	-0
385,9	-0
386,4	-0,001
386,8	-0,001
387,3	-0,001
387,7	-0,002
388,2	-0,002
388,7	-0,002
389,1	-0,003
389,6	-0,003
390	-0,002
390,5	-0,002
390,9	-0,003
391,4	-0,003
391,9	-0,003
392,3	-0,003
392,8	-0,004
393,2	-0,003
393,7	-0,004
394,1	-0,004
394,6	-0,004
395,1	-0,004
395,5	-0,004
396	-0,004
396,4	-0,005
396,9	-0,005
397,3	-0,005
397,8	-0,005
398,2	-0,005
398,7	-0,005
399,2	-0,005
399,6	-0,005
400,1	-0,005
400,5	-0,005
401	-0,005
401,4	-0,005
401,9	-0,005
402,4	-0,005
402,8	-0,005
403,3	-0,005
403,7	-0,005
404,2	-0,005
404,6	-0,005
405,1	-0,005
405,5	-0,005
406	-0,006
406,5	-0,006
406,9	-0,007
407,4	-0,007
407,8	-0,007
408,3	-0,008
408,7	-0,008
409,2	-0,008
409,6	-0,007
410,1	-0,007
410,6	-0,007
411	-0,007
411,5	-0,007
411,9	-0,007
412,4	-0,007
412,8	-0,008
413,3	-0,008
413,7	-0,008
414,2	-0,009
414,7	-0,009
415,1	-0,009
415,6	-0,009
416	-0,009
416,5	-0,009
416,9	-0,008
417,4	-0,008
417,8	-0,008
418,3	-0,008
418,8	-0,008
419,2	-0,009
419,7	-0,009
420,1	-0,009
420,6	-0,01
421	-0,01
421,5	-0,01
421,9	-0,01
422,4	-0,01
422,8	-0,01
423,3	-0,01
423,8	-0,01
424,2	-0,01
424,7	-0,01
425,1	-0,01
425,6	-0,01
426	-0,01
426,5	-0,01
426,9	-0,01
427,4	-0,01
427,9	-0,01
428,3	-0,01
428,8	-0,011
429,2	-0,011
429,7	-0,011
430,1	-0,011
430,6	-0,012
431	-0,012
431,5	-0,012
431,9	-0,012
432,4	-0,012
432,8	-0,012
433,3	-0,012
433,8	-0,012
434,2	-0,011
434,7	-0,011
435,1	-0,011
435,6	-0,012
436	-0,012
436,5	-0,012
436,9	-0,012
437,4	-0,012
437,8	-0,012
438,3	-0,012
438,8	-0,012
439,2	-0,013
439,7	-0,013
440,1	-0,013
440,6	-0,013
441	-0,013
441,5	-0,014
441,9	-0,014
442,4	-0,013
442,8	-0,013
443,3	-0,013
443,7	-0,013
444,2	-0,013
444,7	-0,012
445,1	-0,012
445,6	-0,012
446	-0,012
446,5	-0,013
446,9	-0,013
447,4	-0,013
447,8	-0,013
448,3	-0,013
448,7	-0,013
449,2	-0,014
449,6	-0,013
450,1	-0,014
450,6	-0,014
451	-0,014
451,5	-0,014
451,9	-0,015
452,4	-0,015
452,8	-0,015
453,3	-0,015
453,7	-0,014
454,2	-0,014
454,6	-0,015
455,1	-0,014
455,5	-0,015
456	-0,015
456,4	-0,015
456,9	-0,015
457,3	-0,016
457,8	-0,015
458,3	-0,015
458,7	-0,015
459,2	-0,015
459,6	-0,015
460,1	-0,015
460,5	-0,015
461	-0,015
461,4	-0,016
461,9	-0,015
462,3	-0,016
462,8	-0,016
463,2	-0,015
463,7	-0,015
464,1	-0,015
464,6	-0,015
465	-0,016
465,5	-0,015
466	-0,015
466,4	-0,015
466,9	-0,016
467,3	-0,015
467,8	-0,016
468,2	-0,015
468,7	-0,016
469,1	-0,016
469,6	-0,016
470	-0,016
470,5	-0,016
470,9	-0,016
471,4	-0,016
471,8	-0,015
472,3	-0,015
472,7	-0,015
473,2	-0,015
473,6	-0,015
474,1	-0,016
474,5	-0,016
475	-0,016
475,4	-0,017
475,9	-0,017
476,4	-0,017
476,8	-0,017
477,3	-0,017
477,7	-0,016
478,2	-0,016
478,6	-0,016
479,1	-0,016
479,5	-0,016
480	-0,016
480,4	-0,016
480,9	-0,016
481,3	-0,016
481,8	-0,016
482,2	-0,016
482,7	-0,016
483,1	-0,017
483,6	-0,017
484	-0,017
484,5	-0,018
484,9	-0,018
485,4	-0,018
485,8	-0,018
486,3	-0,018
486,7	-0,017
487,2	-0,018
487,6	-0,017
488,1	-0,016
488,5	-0,015
489	-0,016
489,4	-0,016
489,9	-0,016
490,4	-0,017
490,8	-0,017
491,3	-0,018
491,7	-0,018
492,2	-0,018
492,6	-0,018
493,1	-0,018
493,5	-0,018
494	-0,017
494,4	-0,017
494,9	-0,017
495,3	-0,017
495,8	-0,017
496,2	-0,017
496,7	-0,018
497,1	-0,018
497,6	-0,018
498	-0,018
498,5	-0,018
498,9	-0,018
499,4	-0,018
499,8	-0,018
500,3	-0,018
500,7	-0,018
501,2	-0,018
501,6	-0,018
502,1	-0,018
502,5	-0,018
503	-0,018
503,4	-0,018
503,9	-0,019
504,3	-0,019
504,8	-0,019
505,2	-0,019
505,7	-0,019
506,1	-0,019
506,6	-0,019
507	-0,018
507,5	-0,018
507,9	-0,019
508,4	-0,018
508,8	-0,018
509,3	-0,018
509,7	-0,018
510,2	-0,019
510,6	-0,018
511,1	-0,019
511,5	-0,019
512	-0,019
512,4	-0,019
512,9	-0,019
513,3	-0,019
513,8	-0,02
514,2	-0,02
514,7	-0,02
515,1	-0,02
515,6	-0,02
516	-0,02
516,5	-0,02
516,9	-0,02
517,4	-0,02
517,8	-0,02
518,3	-0,02
518,7	-0,02
519,2	-0,019
519,6	-0,019
520,1	-0,019
520,5	-0,019
521	-0,019
521,4	-0,019
521,9	-0,02
522,3	-0,02
522,8	-0,02
523,2	-0,019
523,7	-0,019
524,1	-0,019
524,6	-0,019
525	-0,019
525,5	-0,02
525,9	-0,02
526,4	-0,02
526,8	-0,021
527,3	-0,02
527,7	-0,021
528,2	-0,021
528,6	-0,021
529,1	-0,021
529,5	-0,021
530	-0,021
530,4	-0,022
530,9	-0,022
531,3	-0,022
531,8	-0,022
532,2	-0,022
532,6	-0,022
533,1	-0,022
533,5	-0,022
534	-0,022
534,4	-0,021
534,9	-0,021
535,3	-0,021
535,8	-0,02
536,2	-0,02
536,7	-0,02
537,1	-0,021
537,6	-0,02
538	-0,021
538,5	-0,021
538,9	-0,021
539,4	-0,022
539,8	-0,022
540,3	-0,021
540,7	-0,022
541,2	-0,021
541,6	-0,021
542,1	-0,021
542,5	-0,021
543	-0,021
543,4	-0,02
543,9	-0,021
544,3	-0,02
544,8	-0,02
545,2	-0,02
545,7	-0,02
546,1	-0,02
546,5	-0,021
547	-0,021
547,4	-0,021
547,9	-0,021
548,3	-0,022
548,8	-0,022
549,2	-0,022
549,7	-0,022
550,1	-0,022
550,6	-0,022
551	-0,022
551,5	-0,022
551,9	-0,022
552,4	-0,022
552,8	-0,021
553,3	-0,021
553,7	-0,021
554,2	-0,021
554,6	-0,021
555,1	-0,021
555,5	-0,021
555,9	-0,021
556,4	-0,021
556,8	-0,021
557,3	-0,021
557,7	-0,021
558,2	-0,021
558,6	-0,022
559,1	-0,022
559,5	-0,022
560	-0,022
560,4	-0,022
560,9	-0,022
561,3	-0,022
561,8	-0,022
562,2	-0,022
562,7	-0,022
563,1	-0,022
563,6	-0,022
564	-0,022
564,4	-0,022
564,9	-0,022
565,3	-0,022
565,8	-0,022
566,2	-0,022
566,7	-0,022
567,1	-0,023
567,6	-0,022
568	-0,023
568,5	-0,023
568,9	-0,023
569,4	-0,023
569,8	-0,023
570,3	-0,022
570,7	-0,023
571,1	-0,023
571,6	-0,022
572	-0,022
572,5	-0,022
572,9	-0,022
573,4	-0,022
573,8	-0,023
574,3	-0,023
574,7	-0,023
575,2	-0,023
575,6	-0,022
576,1	-0,023
576,5	-0,023
576,9	-0,023
577,4	-0,023
577,8	-0,023
578,3	-0,022
578,7	-0,023
579,2	-0,022
579,6	-0,022
580,1	-0,022
580,5	-0,023
581	-0,023
581,4	-0,022
581,9	-0,022
582,3	-0,022
582,7	-0,022
583,2	-0,022
583,6	-0,022
584,1	-0,022
584,5	-0,022
585	-0,023
585,4	-0,023
585,9	-0,023
586,3	-0,023
586,8	-0,023
587,2	-0,023
587,6	-0,022
588,1	-0,022
588,5	-0,022
589	-0,022
589,4	-0,022
589,9	-0,021
590,3	-0,022
590,8	-0,021
591,2	-0,022
591,7	-0,022
592,1	-0,022
592,5	-0,022
593	-0,022
593,4	-0,022
593,9	-0,023
594,3	-0,022
594,8	-0,022
595,2	-0,022
595,7	-0,022
596,1	-0,023
596,6	-0,023
597	-0,023
597,4	-0,023
597,9	-0,023
598,3	-0,023
598,8	-0,023
599,2	-0,023
599,7	-0,023
600,1	-0,023
600,6	-0,023
601	-0,023
601,4	-0,023
601,9	-0,023
602,3	-0,023
602,8	-0,023
603,2	-0,023
603,7	-0,023
604,1	-0,023
604,6	-0,023
605	-0,023
605,4	-0,023
605,9	-0,023
606,3	-0,023
606,8	-0,023
607,2	-0,024
607,7	-0,023
608,1	-0,023
608,6	-0,024
609	-0,024
609,4	-0,024
609,9	-0,024
610,3	-0,024
610,8	-0,024
611,2	-0,024
611,7	-0,024
612,1	-0,024
612,6	-0,024
613	-0,024
613,4	-0,024
613,9	-0,024
614,3	-0,024
614,8	-0,024
615,2	-0,024
615,7	-0,024
616,1	-0,024
616,6	-0,024
617	-0,024
617,4	-0,024
617,9	-0,024
618,3	-0,024
618,8	-0,024
619,2	-0,024
619,7	-0,023
620,1	-0,023
620,5	-0,023
621	-0,024
621,4	-0,024
621,9	-0,024
622,3	-0,024
622,8	-0,024
623,2	-0,024
623,6	-0,024
624,1	-0,024
624,5	-0,024
625	-0,024
625,4	-0,024
625,9	-0,024
626,3	-0,024
626,8	-0,024
627,2	-0,023
627,6	-0,023
628,1	-0,024
628,5	-0,024
629	-0,024
629,4	-0,024
629,9	-0,024
630,3	-0,024
630,7	-0,024
631,2	-0,024
631,6	-0,024
632,1	-0,024
632,5	-0,024
633	-0,024
633,4	-0,024
633,8	-0,024
634,3	-0,024
634,7	-0,024
635,2	-0,023
635,6	-0,023
636,1	-0,023
636,5	-0,023
636,9	-0,023
637,4	-0,023
637,8	-0,024
638,3	-0,024
638,7	-0,024
639,2	-0,024
639,6	-0,024
640	-0,024
640,5	-0,024
640,9	-0,024
641,4	-0,024
641,8	-0,024
642,2	-0,025
642,7	-0,025
643,1	-0,025
643,6	-0,024
644	-0,024
644,5	-0,024
644,9	-0,023
645,3	-0,023
645,8	-0,023
646,2	-0,023
646,7	-0,024
647,1	-0,024
647,6	-0,024
648	-0,024
648,4	-0,024
648,9	-0,024
649,3	-0,024
649,8	-0,024
650,2	-0,024
650,6	-0,024
651,1	-0,025
651,5	-0,025
652	-0,025
652,4	-0,024
652,9	-0,024
653,3	-0,023
653,7	-0,021
654,2	-0,014
654,6	-0,01
655,1	-0,007
655,5	-0,007
655,9	-0,006
656,4	-0,006
656,8	-0,005
657,3	-0,007
657,7	-0,01
658,2	-0,016
658,6	-0,019
659	-0,021
659,5	-0,021
659,9	-0,022
660,4	-0,023
660,8	-0,023
661,2	-0,024
661,7	-0,024
662,1	-0,024
662,6	-0,024
663	-0,024
663,4	-0,024
663,9	-0,024
664,3	-0,024
664,8	-0,024
665,2	-0,024
665,6	-0,024
666,1	-0,024
666,5	-0,024
667	-0,024
667,4	-0,023
667,9	-0,023
668,3	-0,024
668,7	-0,024
669,2	-0,024
669,6	-0,024
670,1	-0,024
670,5	-0,024
670,9	-0,024
671,4	-0,024
671,8	-0,024
672,3	-0,024
672,7	-0,024
673,1	-0,024
673,6	-0,024
674	-0,024
674,5	-0,024
674,9	-0,024
675,3	-0,024
675,8	-0,024
676,2	-0,024
676,7	-0,024
677,1	-0,024
677,5	-0,024
678	-0,025
678,4	-0,025
678,9	-0,025
679,3	-0,025
679,7	-0,025
680,2	-0,024
680,6	-0,024
681,1	-0,024
681,5	-0,024
681,9	-0,025
682,4	-0,025
682,8	-0,025
683,3	-0,025
683,7	-0,026
684,1	-0,025
684,6	-0,025
685	-0,024
685,5	-0,024
685,9	-0,024
686,3	-0,024
686,8	-0,024
687,2	-0,024
687,7	-0,025
688,1	-0,025
688,5	-0,025
689	-0,025
689,4	-0,025
689,9	-0,025
690,3	-0,025
690,7	-0,025
691,2	-0,025
691,6	-0,025
692	-0,025
692,5	-0,025
692,9	-0,024
693,4	-0,025
693,8	-0,025
694,2	-0,024
694,7	-0,024
695,1	-0,024
695,6	-0,024
696	-0,024
696,4	-0,024
696,9	-0,024
697,3	-0,024
697,8	-0,024
698,2	-0,024
698,6	-0,024
699,1	-0,024
699,5	-0,024
699,9	-0,024
700,4	-0,024
700,8	-0,024
701,3	-0,024
701,7	-0,024
702,1	-0,024
702,6	-0,024
703	-0,024
703,5	-0,024
703,9	-0,024
704,3	-0,024
704,8	-0,025
705,2	-0,024
705,6	-0,024
706,1	-0,024
706,5	-0,025
707	-0,025
707,4	-0,025
707,8	-0,025
708,3	-0,025
708,7	-0,025
709,2	-0,025
709,6	-0,025
710	-0,025
710,5	-0,024
710,9	-0,024
711,3	-0,024
711,8	-0,024
712,2	-0,024
712,7	-0,024
713,1	-0,025
713,5	-0,025
714	-0,025
714,4	-0,025
714,8	-0,025
715,3	-0,025
715,7	-0,024
716,2	-0,024
716,6	-0,024
717	-0,024
717,5	-0,024
717,9	-0,024
718,3	-0,024
718,8	-0,024
719,2	-0,025
719,7	-0,025
720,1	-0,025
720,5	-0,025
721	-0,025
721,4	-0,025
721,8	-0,025
722,3	-0,025
722,7	-0,025
723,2	-0,025
723,6	-0,025
724	-0,025
724,5	-0,025
724,9	-0,024
725,3	-0,025
725,8	-0,024
726,2	-0,024
726,7	-0,024
727,1	-0,024
727,5	-0,025
728	-0,025
728,4	-0,025
728,8	-0,025
729,3	-0,025
729,7	-0,025
730,1	-0,025
730,6	-0,025
731	-0,025
731,5	-0,025
731,9	-0,025
732,3	-0,026
732,8	-0,025
733,2	-0,025
733,6	-0,025
734,1	-0,025
734,5	-0,025
734,9	-0,025
735,4	-0,025
735,8	-0,025
736,3	-0,024
736,7	-0,024
737,1	-0,024
737,6	-0,024
738	-0,024
738,4	-0,024
738,9	-0,024
739,3	-0,024
739,7	-0,024
740,2	-0,023
740,6	-0,023
741,1	-0,024
741,5	-0,024
741,9	-0,023
742,4	-0,024
742,8	-0,024
743,2	-0,025
743,7	-0,025
744,1	-0,025
744,5	-0,025
745	-0,025
745,4	-0,025
745,8	-0,024
746,3	-0,024
746,7	-0,024
747,2	-0,024
747,6	-0,024
748	-0,024
748,5	-0,024
748,9	-0,024
749,3	-0,025
749,8	-0,025
750,2	-0,025
750,6	-0,025
751,1	-0,024
751,5	-0,024
751,9	-0,025
752,4	-0,025
752,8	-0,025
753,3	-0,025
753,7	-0,025
754,1	-0,025
754,6	-0,025
755	-0,025
755,4	-0,025
755,9	-0,024
756,3	-0,025
756,7	-0,025
757,2	-0,025
757,6	-0,025
758	-0,025
758,5	-0,025
758,9	-0,025
759,3	-0,024
759,8	-0,024
760,2	-0,024
760,6	-0,024
761,1	-0,024
761,5	-0,024
761,9	-0,025
762,4	-0,025
762,8	-0,025
763,3	-0,025
763,7	-0,025
764,1	-0,025
764,6	-0,025
765	-0,024
765,4	-0,024
765,9	-0,024
766,3	-0,024
766,7	-0,024
767,2	-0,024
767,6	-0,024
768	-0,024
768,5	-0,024
768,9	-0,024
769,3	-0,024
769,8	-0,024
770,2	-0,024
770,6	-0,024
771,1	-0,024
771,5	-0,024
771,9	-0,024
772,4	-0,024
772,8	-0,024
773,2	-0,024
773,7	-0,024
774,1	-0,024
774,5	-0,024
775	-0,024
775,4	-0,024
775,8	-0,024
776,3	-0,024
776,7	-0,024
777,1	-0,024
777,6	-0,024
778	-0,024
778,4	-0,024
778,9	-0,024
779,3	-0,024
779,7	-0,024
780,2	-0,024
780,6	-0,024
781	-0,025
781,5	-0,025
781,9	-0,025
782,3	-0,025
782,8	-0,025
783,2	-0,025
783,6	-0,024
784,1	-0,024
784,5	-0,025
784,9	-0,025
785,4	-0,025
785,8	-0,025
786,2	-0,025
786,7	-0,025
787,1	-0,025
787,5	-0,025
788	-0,025
788,4	-0,025
788,8	-0,025
789,3	-0,025
789,7	-0,024
790,1	-0,024
790,6	-0,024
791	-0,024
791,4	-0,025
791,9	-0,024
792,3	-0,025
792,7	-0,025
793,2	-0,025
793,6	-0,024
794	-0,025
794,5	-0,024
794,9	-0,024
795,3	-0,024
795,8	-0,024
796,2	-0,024
796,6	-0,024
797,1	-0,024
797,5	-0,024
797,9	-0,025
798,4	-0,025
798,8	-0,024
799,2	-0,025
799,7	-0,025
800,1	-0,025
800,5	-0,025
801	-0,025
801,4	-0,025
801,8	-0,025
802,2	-0,025
802,7	-0,025
803,1	-0,024
803,5	-0,024
804	-0,024
804,4	-0,024
804,8	-0,024
805,3	-0,024
805,7	-0,024
806,1	-0,025
806,6	-0,025
807	-0,025
807,4	-0,025
807,9	-0,025
808,3	-0,025
808,7	-0,025
809,2	-0,025
809,6	-0,025
810	-0,025
810,4	-0,024
810,9	-0,024
811,3	-0,024
811,7	-0,024
812,2	-0,024
812,6	-0,024
813	-0,024
813,5	-0,024
813,9	-0,024
814,3	-0,024
814,8	-0,024
815,2	-0,024
815,6	-0,024
816,1	-0,024
816,5	-0,024
816,9	-0,024
817,3	-0,024
817,8	-0,024
818,2	-0,024
818,6	-0,025
819,1	-0,025
819,5	-0,025
819,9	-0,025
820,4	-0,025
820,8	-0,025
821,2	-0,025
821,7	-0,025
822,1	-0,025
822,5	-0,024
822,9	-0,024
823,4	-0,025
823,8	-0,024
824,2	-0,024
824,7	-0,024
825,1	-0,025
825,5	-0,025
826	-0,025
826,4	-0,024
826,8	-0,025
827,3	-0,024
827,7	-0,025
828,1	-0,024
828,5	-0,024
829	-0,024
829,4	-0,024
829,8	-0,024
830,3	-0,024
830,7	-0,024
831,1	-0,024
831,6	-0,024
832	-0,024
832,4	-0,024
832,8	-0,024
833,3	-0,024
833,7	-0,024
834,1	-0,025
834,6	-0,024
835	-0,025
835,4	-0,025
835,8	-0,025
836,3	-0,025
836,7	-0,025
837,1	-0,025
837,6	-0,025
838	-0,025
838,4	-0,024
838,9	-0,024
839,3	-0,024
839,7	-0,024
840,1	-0,024
840,6	-0,024
841	-0,025
841,4	-0,025
841,9	-0,026
842,3	-0,026
842,7	-0,026
843,1	-0,026
843,6	-0,025
844	-0,025
844,4	-0,025
844,9	-0,024
845,3	-0,024
845,7	-0,024
846,2	-0,024
846,6	-0,024
847	-0,024
847,4	-0,024
847,9	-0,024
848,3	-0,024
848,7	-0,025
849,2	-0,025
849,6	-0,026
850	-0,026
850,4	-0,026
850,9	-0,026
851,3	-0,026
851,7	-0,026
852,2	-0,026
852,6	-0,025
853	-0,025
853,4	-0,025
853,9	-0,024
854,3	-0,024
854,7	-0,024
855,2	-0,024
855,6	-0,025
856	-0,025
856,4	-0,025
856,9	-0,025
857,3	-0,025
857,7	-0,024
858,2	-0,024
858,6	-0,024
859	-0,024
859,4	-0,025
859,9	-0,025
860,3	-0,024
860,7	-0,024
861,1	-0,025
861,6	-0,024
862	-0,024
862,4	-0,024
862,9	-0,024
863,3	-0,025
863,7	-0,025
864,1	-0,025
864,6	-0,025
865	-0,025
865,4	-0,025
865,9	-0,025
866,3	-0,024
866,7	-0,025
867,1	-0,024
867,6	-0,024
868	-0,024
868,4	-0,024
868,8	-0,024
869,3	-0,024
869,7	-0,024
870,1	-0,024
870,6	-0,024
871	-0,023
871,4	-0,023
871,8	-0,023
872,3	-0,023
872,7	-0,024
873,1	-0,024
873,5	-0,024
874	-0,025
874,4	-0,025
874,8	-0,025
875,3	-0,025
875,7	-0,025
876,1	-0,025
876,5	-0,025
877	-0,025
877,4	-0,025
877,8	-0,025
878,2	-0,025
878,7	-0,025
879,1	-0,025
879,5	-0,024
879,9	-0,024
880,4	-0,024
880,8	-0,024
881,2	-0,025
881,7	-0,025
882,1	-0,025
882,5	-0,025
882,9	-0,025
883,4	-0,025
883,8	-0,025
884,2	-0,025
884,6	-0,025
885,1	-0,025
885,5	-0,025
885,9	-0,025
886,3	-0,025
886,8	-0,025
887,2	-0,025
887,6	-0,025
888	-0,025
888,5	-0,025
888,9	-0,025
889,3	-0,025
889,8	-0,025
890,2	-0,024
890,6	-0,024
891	-0,025
891,5	-0,025
891,9	-0,025
892,3	-0,025
892,7	-0,025
893,2	-0,025
893,6	-0,025
894	-0,025
894,4	-0,025
894,9	-0,026
895,3	-0,025
895,7	-0,025
896,1	-0,026
896,6	-0,026
897	-0,025
897,4	-0,025
897,8	-0,025
898,3	-0,025
898,7	-0,025
899,1	-0,025
899,5	-0,025
900	-0,025
900,4	-0,025
900,8	-0,025
901,2	-0,025
901,7	-0,024
902,1	-0,024
902,5	-0,024
902,9	-0,024
903,4	-0,024
903,8	-0,024
904,2	-0,023
904,6	-0,023
905,1	-0,023
905,5	-0,023
905,9	-0,024
906,3	-0,024
906,8	-0,025
907,2	-0,025
907,6	-0,025
908	-0,025
908,5	-0,025
908,9	-0,025
909,3	-0,025
909,7	-0,025
910,2	-0,025
910,6	-0,024
911	-0,024
911,4	-0,024
911,9	-0,024
912,3	-0,024
912,7	-0,024
913,1	-0,024
913,6	-0,024
914	-0,024
914,4	-0,024
914,8	-0,025
915,3	-0,025
915,7	-0,026
916,1	-0,026
916,5	-0,026
916,9	-0,026
917,4	-0,026
917,8	-0,026
918,2	-0,026
918,6	-0,025
919,1	-0,025
919,5	-0,025
919,9	-0,024
920,3	-0,024
920,8	-0,025
921,2	-0,025
921,6	-0,026
922	-0,026
922,5	-0,026
922,9	-0,025
923,3	-0,025
923,7	-0,025
924,2	-0,025
924,6	-0,024
925	-0,024
925,4	-0,025
925,8	-0,025
926,3	-0,024
926,7	-0,024
927,1	-0,024
927,5	-0,024
928	-0,024
928,4	-0,023
928,8	-0,023
929,2	-0,023
929,7	-0,023
930,1	-0,023
930,5	-0,023
930,9	-0,023
931,3	-0,024
931,8	-0,024
932,2	-0,024
932,6	-0,025
933	-0,025
933,5	-0,025
933,9	-0,025
934,3	-0,024
934,7	-0,024
935,2	-0,024
935,6	-0,024
936	-0,024
936,4	-0,023
936,8	-0,024
937,3	-0,024
937,7	-0,024
938,1	-0,024
938,5	-0,025
939	-0,025
939,4	-0,025
939,8	-0,025
940,2	-0,025
940,6	-0,025
941,1	-0,025
941,5	-0,025
941,9	-0,025
942,3	-0,025
942,8	-0,025
943,2	-0,025
943,6	-0,025
944	-0,025
944,4	-0,025
944,9	-0,025
945,3	-0,026
945,7	-0,026
946,1	-0,026
946,6	-0,026
947	-0,025
947,4	-0,025
947,8	-0,025
948,2	-0,026
948,7	-0,026
949,1	-0,026
949,5	-0,026
949,9	-0,027
950,3	-0,027
950,8	-0,026
951,2	-0,025
951,6	-0,026
952	-0,025
952,5	-0,025
952,9	-0,025
953,3	-0,025
953,7	-0,024
954,1	-0,024
954,6	-0,024
955	-0,024
955,4	-0,024
955,8	-0,024
956,2	-0,024
956,7	-0,024
957,1	-0,025
957,5	-0,025
957,9	-0,026
958,3	-0,025
958,8	-0,025
959,2	-0,025
959,6	-0,025
960	-0,024
960,5	-0,024
960,9	-0,024
961,3	-0,024
961,7	-0,024
962,1	-0,024
962,6	-0,024
963	-0,024
963,4	-0,024
963,8	-0,024
964,2	-0,024
964,7	-0,023
965,1	-0,023
965,5	-0,023
965,9	-0,023
966,3	-0,022
966,8	-0,023
967,2	-0,023
967,6	-0,024
968	-0,024
968,4	-0,024
968,9	-0,025
969,3	-0,025
969,7	-0,025
970,1	-0,025
970,5	-0,025
971	-0,024
971,4	-0,024
971,8	-0,024
972,2	-0,025
972,6	-0,024
973,1	-0,024
973,5	-0,024
973,9	-0,025
974,3	-0,025
974,7	-0,025
975,2	-0,025
975,6	-0,026
976	-0,026
976,4	-0,026
976,8	-0,026
977,3	-0,026
977,7	-0,026
978,1	-0,026
978,5	-0,025
978,9	-0,025
979,4	-0,026
979,8	-0,025
980,2	-0,025
980,6	-0,025
981	-0,025
981,5	-0,024
981,9	-0,024
982,3	-0,023
982,7	-0,024
983,1	-0,024
983,6	-0,023
984	-0,023
984,4	-0,024
984,8	-0,024
985,2	-0,024
985,6	-0,024
986,1	-0,024
986,5	-0,025
986,9	-0,024
987,3	-0,024
987,7	-0,024
988,2	-0,024
988,6	-0,024
989	-0,024
989,4	-0,024
989,8	-0,024
990,3	-0,024
990,7	-0,025
991,1	-0,025
991,5	-0,025
991,9	-0,026
992,3	-0,026
992,8	-0,026
993,2	-0,025
993,6	-0,025
994	-0,025
994,4	-0,025
994,9	-0,024
995,3	-0,023
995,7	-0,024
996,1	-0,024
996,5	-0,024
996,9	-0,024
997,4	-0,024
997,8	-0,023
998,2	-0,024
998,6	-0,024
999	-0,024
999,5	-0,024
999,9	-0,025
1000,3	-0,025
1000,7	-0,025
1001,1	-0,025
1001,5	-0,025
1002	-0,025
1002,4	-0,025
1002,8	-0,025
1003,2	-0,026
1003,6	-0,025
1004	-0,025
1004,5	-0,025
1004,9	-0,025
1005,3	-0,026
1005,7	-0,025
1006,1	-0,025
1006,6	-0,025
1007	-0,025
1007,4	-0,025
1007,8	-0,025
1008,2	-0,025
1008,6	-0,024
1009,1	-0,024
1009,5	-0,024
1009,9	-0,024
1010,3	-0,024
1010,7	-0,024
1011,1	-0,023
1011,6	-0,023
1012	-0,023
1012,4	-0,023
1012,8	-0,024
1013,2	-0,024
1013,6	-0,024
1014,1	-0,025
1014,5	-0,025
1014,9	-0,026
1015,3	-0,026
1015,7	-0,026
1016,1	-0,026
1016,6	-0,026
1017	-0,026
1017,4	-0,025
1017,8	-0,025
1018,2	-0,025
1018,6	-0,025
1019,1	-0,025
1019,5	-0,025
1019,9	-0,025
1020,3	-0,024
1020,7	-0,025
1021,1	-0,025
1021,6	-0,025
1022	-0,024
1022,4	-0,024
1022,8	-0,024
1023,2	-0,024
1023,6	-0,024
1024,1	-0,024
1024,5	-0,024
1024,9	-0,024
1025,3	-0,023
1025,7	-0,023
1026,1	-0,024
1026,6	-0,024
1027	-0,024
1027,4	-0,025
1027,8	-0,025
1028,2	-0,026
1028,6	-0,025
1029	-0,025
1029,5	-0,025
1029,9	-0,025
1030,3	-0,024
1030,7	-0,023
1031,1	-0,023
1031,5	-0,023
1032	-0,023
1032,4	-0,023
1032,8	-0,023
1033,2	-0,024
1033,6	-0,024
1034	-0,025
1034,4	-0,025
1034,9	-0,025
1035,3	-0,025
1035,7	-0,025
1036,1	-0,025
1036,5	-0,026
1036,9	-0,025
1037,4	-0,025
1037,8	-0,025
1038,2	-0,026
1038,6	-0,026
1039	-0,026
1039,4	-0,024
1039,8	-0,024
1040,3	-0,024
1040,7	-0,024
1041,1	-0,024
1041,5	-0,023
1041,9	-0,023
1042,3	-0,024
1042,7	-0,024
1043,2	-0,024
1043,6	-0,024
1044	-0,024
1044,4	-0,024
1044,8	-0,024
1045,2	-0,024
1045,6	-0,023
1046,1	-0,023
1046,5	-0,024
1046,9	-0,024
1047,3	-0,024
1047,7	-0,024
1048,1	-0,025
1048,5	-0,025
1049	-0,025
1049,4	-0,025
1049,8	-0,025
1050,2	-0,024
1050,6	-0,024
1051	-0,024
1051,4	-0,024
1051,9	-0,024
1052,3	-0,024
1052,7	-0,024
1053,1	-0,023
1053,5	-0,022
1053,9	-0,023
1054,3	-0,022
1054,8	-0,022
1055,2	-0,022
1055,6	-0,023
1056	-0,023
1056,4	-0,024
1056,8	-0,024
1057,2	-0,024
1057,6	-0,024
1058,1	-0,025
1058,5	-0,024
1058,9	-0,023
1059,3	-0,023
1059,7	-0,024
1060,1	-0,025
1060,5	-0,025
1061	-0,025
1061,4	-0,025
1061,8	-0,025
1062,2	-0,025
1062,6	-0,025
1063	-0,025
1063,4	-0,024
1063,8	-0,024
1064,3	-0,024
1064,7	-0,024
1065,1	-0,024
1065,5	-0,024
1065,9	-0,023
1066,3	-0,024
1066,7	-0,024
1067,1	-0,025
1067,6	-0,024
1068	-0,024
1068,4	-0,023
1068,8	-0,024
1069,2	-0,023
1069,6	-0,023
1070	-0,023
1070,4	-0,025
1070,9	-0,026
1071,3	-0,026
1071,7	-0,026
1072,1	-0,027
1072,5	-0,026
1072,9	-0,025
1073,3	-0,025
1073,7	-0,024
1074,2	-0,025
1074,6	-0,024
1075	-0,023
1075,4	-0,022
1075,8	-0,022
1076,2	-0,023
1076,6	-0,023
1077	-0,021
1077,5	-0,022
1077,9	-0,024
1078,3	-0,025
1078,7	-0,025
1079,1	-0,024
1079,5	-0,025
1079,9	-0,028
1080,3	-0,029
1080,7	-0,027
1081,2	-0,027
1081,6	-0,029
1082	-0,029
1082,4	-0,029
1082,8	-0,027
1083,2	-0,025
1083,6	-0,026
1084	-0,026
1084,5	-0,025
1084,9	-0,026
1085,3	-0,024
1085,7	-0,027
1086,1	-0,028
1086,5	-0,028
1086,9	-0,027
1087,3	-0,026
1087,7	-0,025
1088,2	-0,027
1088,6	-0,025
1089	-0,025
1089,4	-0,026
1089,8	-0,026
1090,2	-0,025
1090,6	-0,024
1091	-0,021
1091,4	-0,023
1091,9	-0,023
1092,3	-0,023
1092,7	-0,02
1093,1	-0,02
1093,5	-0,022
1093,9	-0,025
1094,3	-0,026
1094,7	-0,028
1095,1	-0,027
1095,5	-0,03
1096	-0,034
1096,4	-0,035
1096,8	-0,033
1097,2	-0,028
1097,6	-0,023
1098	-0,03
1098,4	-0,029
1098,8	-0,027
1099,2	-0,029
1099,6	-0,031
1100,1	-0,032
1100,5	-0,03
1100,9	-0,021
1101,3	-0,025
1101,7	-0,025
1102,1	-0,024
1102,5	-0,028
1102,9	-0,034
1103,3	-0,036
1103,7	-0,036
1104,2	-0,041
1104,6	-0,046
1105	-0,05
1105,4	-0,047
1105,8	-0,047
1106,2	-0,048
1106,6	-0,068
1107	-0,061
1107,4	-0,076
1107,8	-0,058
1108,3	-0
