Data from Absorbance_011.txt Node
Date: Fri Nov 13 12:17:37 MSK 2020
User: vat
Spectrometer: MAYP114033
Trigger mode: 0
Integration Time (sec): 8,000000E-3
Scans to average: 10
Electric dark correction enabled: true
Nonlinearity correction enabled: false
Boxcar width: 3
XAxis mode: Wavelengths
Number of Pixels in Spectrum: 2068
>>>>>Begin Spectral Data<<<<<
199,4	-0,519
199,9	-0,048
200,4	0,059
200,8	0,055
201,3	0,022
201,8	0,038
202,2	0,031
202,7	0,015
203,2	0,004
203,6	0,017
204,1	0,012
204,6	0,011
205	0,008
205,5	0
206	-0,009
206,4	-0,013
206,9	-0,032
207,4	-0,036
207,8	-0,017
208,3	-0,012
208,8	-0,006
209,2	0,009
209,7	0,017
210,2	0,014
210,6	0,02
211,1	0,006
211,5	0,004
212	0,014
212,5	0,006
212,9	0,016
213,4	0,015
213,9	0,003
214,3	0,018
214,8	0,015
215,3	0,002
215,7	0,009
216,2	-0,002
216,7	0,002
217,1	0,001
217,6	-0,003
218,1	0,017
218,5	0,026
219	0,02
219,5	0,036
219,9	0,032
220,4	0,042
220,9	0,036
221,3	0,029
221,8	0,028
222,3	0,031
222,7	0,022
223,2	0,034
223,6	0,052
224,1	0,05
224,6	0,056
225	0,066
225,5	0,066
226	0,068
226,4	0,059
226,9	0,039
227,4	0,047
227,8	0,04
228,3	0,032
228,8	0,02
229,2	0,009
229,7	0,012
230,2	0,017
230,6	0,022
231,1	0,024
231,5	0,033
232	0,04
232,5	0,041
232,9	0,053
233,4	0,046
233,9	0,041
234,3	0,046
234,8	0,039
235,3	0,052
235,7	0,061
236,2	0,053
236,7	0,066
237,1	0,065
237,6	0,061
238,1	0,067
238,5	0,076
239	0,08
239,4	0,085
239,9	0,093
240,4	0,096
240,8	0,11
241,3	0,12
241,8	0,107
242,2	0,119
242,7	0,141
243,2	0,143
243,6	0,172
244,1	0,171
244,6	0,173
245	0,192
245,5	0,198
245,9	0,195
246,4	0,204
246,9	0,207
247,3	0,22
247,8	0,231
248,3	0,244
248,7	0,255
249,2	0,266
249,7	0,276
250,1	0,289
250,6	0,306
251	0,312
251,5	0,324
252	0,336
252,4	0,351
252,9	0,364
253,4	0,378
253,8	0,386
254,3	0,396
254,8	0,41
255,2	0,425
255,7	0,438
256,1	0,451
256,6	0,464
257,1	0,477
257,5	0,495
258	0,511
258,5	0,526
258,9	0,54
259,4	0,557
259,9	0,572
260,3	0,591
260,8	0,608
261,2	0,623
261,7	0,641
262,2	0,66
262,6	0,681
263,1	0,7
263,6	0,722
264	0,741
264,5	0,764
264,9	0,787
265,4	0,807
265,9	0,827
266,3	0,849
266,8	0,868
267,3	0,89
267,7	0,909
268,2	0,93
268,7	0,952
269,1	0,974
269,6	0,995
270	1,019
270,5	1,041
271	1,063
271,4	1,083
271,9	1,105
272,4	1,126
272,8	1,146
273,3	1,162
273,7	1,181
274,2	1,199
274,7	1,216
275,1	1,232
275,6	1,249
276,1	1,264
276,5	1,282
277	1,297
277,4	1,311
277,9	1,324
278,4	1,337
278,8	1,348
279,3	1,358
279,8	1,366
280,2	1,371
280,7	1,378
281,1	1,384
281,6	1,388
282,1	1,388
282,5	1,389
283	1,389
283,4	1,39
283,9	1,386
284,4	1,384
284,8	1,38
285,3	1,376
285,8	1,37
286,2	1,362
286,7	1,353
287,1	1,343
287,6	1,33
288,1	1,316
288,5	1,304
289	1,288
289,5	1,271
289,9	1,251
290,4	1,233
290,8	1,214
291,3	1,193
291,8	1,171
292,2	1,146
292,7	1,122
293,1	1,098
293,6	1,073
294,1	1,048
294,5	1,021
295	0,993
295,5	0,967
295,9	0,938
296,4	0,909
296,8	0,88
297,3	0,85
297,8	0,821
298,2	0,792
298,7	0,762
299,1	0,733
299,6	0,704
300,1	0,676
300,5	0,647
301	0,619
301,5	0,593
301,9	0,565
302,4	0,54
302,8	0,515
303,3	0,49
303,8	0,466
304,2	0,444
304,7	0,422
305,1	0,4
305,6	0,379
306,1	0,359
306,5	0,341
307	0,323
307,4	0,305
307,9	0,288
308,4	0,273
308,8	0,258
309,3	0,243
309,8	0,229
310,2	0,216
310,7	0,204
311,1	0,192
311,6	0,181
312,1	0,171
312,5	0,161
313	0,152
313,4	0,144
313,9	0,135
314,4	0,128
314,8	0,121
315,3	0,114
315,7	0,108
316,2	0,102
316,7	0,097
317,1	0,092
317,6	0,087
318	0,083
318,5	0,079
319	0,075
319,4	0,071
319,9	0,067
320,3	0,064
320,8	0,061
321,3	0,058
321,7	0,056
322,2	0,053
322,6	0,051
323,1	0,049
323,6	0,048
324	0,046
324,5	0,044
324,9	0,043
325,4	0,042
325,9	0,041
326,3	0,039
326,8	0,038
327,2	0,037
327,7	0,036
328,2	0,035
328,6	0,034
329,1	0,033
329,5	0,033
330	0,032
330,5	0,031
330,9	0,03
331,4	0,03
331,8	0,029
332,3	0,028
332,8	0,028
333,2	0,027
333,7	0,027
334,1	0,027
334,6	0,027
335,1	0,027
335,5	0,026
336	0,026
336,4	0,025
336,9	0,025
337,4	0,025
337,8	0,024
338,3	0,024
338,7	0,023
339,2	0,023
339,7	0,023
340,1	0,022
340,6	0,022
341	0,022
341,5	0,022
342	0,022
342,4	0,021
342,9	0,021
343,3	0,022
343,8	0,021
344,2	0,021
344,7	0,021
345,2	0,02
345,6	0,02
346,1	0,02
346,5	0,02
347	0,02
347,5	0,019
347,9	0,019
348,4	0,019
348,8	0,019
349,3	0,019
349,8	0,019
350,2	0,019
350,7	0,018
351,1	0,019
351,6	0,018
352	0,018
352,5	0,017
353	0,017
353,4	0,017
353,9	0,017
354,3	0,017
354,8	0,017
355,3	0,017
355,7	0,017
356,2	0,017
356,6	0,017
357,1	0,017
357,5	0,016
358	0,016
358,5	0,016
358,9	0,016
359,4	0,015
359,8	0,015
360,3	0,015
360,8	0,014
361,2	0,014
361,7	0,014
362,1	0,013
362,6	0,014
363	0,014
363,5	0,014
364	0,013
364,4	0,013
364,9	0,013
365,3	0,013
365,8	0,013
366,3	0,012
366,7	0,012
367,2	0,012
367,6	0,013
368,1	0,012
368,5	0,012
369	0,012
369,5	0,011
369,9	0,011
370,4	0,011
370,8	0,01
371,3	0,011
371,7	0,011
372,2	0,011
372,7	0,011
373,1	0,011
373,6	0,011
374	0,011
374,5	0,01
374,9	0,01
375,4	0,009
375,9	0,009
376,3	0,009
376,8	0,008
377,2	0,008
377,7	0,008
378,2	0,009
378,6	0,009
379,1	0,009
379,5	0,009
380	0,009
380,4	0,008
380,9	0,008
381,4	0,008
381,8	0,007
382,3	0,007
382,7	0,007
383,2	0,007
383,6	0,007
384,1	0,006
384,6	0,006
385	0,006
385,5	0,006
385,9	0,006
386,4	0,006
386,8	0,006
387,3	0,005
387,7	0,005
388,2	0,005
388,7	0,005
389,1	0,004
389,6	0,004
390	0,004
390,5	0,005
390,9	0,005
391,4	0,005
391,9	0,005
392,3	0,005
392,8	0,005
393,2	0,005
393,7	0,004
394,1	0,004
394,6	0,004
395,1	0,004
395,5	0,004
396	0,004
396,4	0,003
396,9	0,004
397,3	0,004
397,8	0,003
398,2	0,003
398,7	0,003
399,2	0,003
399,6	0,003
400,1	0,003
400,5	0,003
401	0,003
401,4	0,003
401,9	0,003
402,4	0,003
402,8	0,003
403,3	0,002
403,7	0,002
404,2	0,002
404,6	0,002
405,1	0,002
405,5	0,002
406	0,002
406,5	0,001
406,9	0,001
407,4	0,002
407,8	0,002
408,3	0,001
408,7	0,001
409,2	0,001
409,6	0,001
410,1	0,001
410,6	0,001
411	0,001
411,5	0,001
411,9	0,001
412,4	0,001
412,8	0,001
413,3	0,001
413,7	0,001
414,2	0
414,7	0,001
415,1	0
415,6	-0
416	0
416,5	-0
416,9	-0
417,4	0,001
417,8	0
418,3	0,001
418,8	0,001
419,2	-0
419,7	0,001
420,1	0
420,6	-0
421	-0
421,5	-0
421,9	-0
422,4	0
422,8	-0,001
423,3	-0,001
423,8	-0
424,2	-0
424,7	-0
425,1	-0
425,6	-0,001
426	-0
426,5	-0
426,9	-0,001
427,4	-0,001
427,9	-0,001
428,3	-0,001
428,8	-0,001
429,2	-0,001
429,7	-0,001
430,1	-0,002
430,6	-0,002
431	-0,003
431,5	-0,003
431,9	-0,003
432,4	-0,003
432,8	-0,003
433,3	-0,003
433,8	-0,003
434,2	-0,002
434,7	-0,002
435,1	-0,002
435,6	-0,003
436	-0,002
436,5	-0,002
436,9	-0,002
437,4	-0,002
437,8	-0,002
438,3	-0,002
438,8	-0,003
439,2	-0,003
439,7	-0,003
440,1	-0,004
440,6	-0,004
441	-0,004
441,5	-0,004
441,9	-0,004
442,4	-0,005
442,8	-0,004
443,3	-0,004
443,7	-0,003
444,2	-0,003
444,7	-0,003
445,1	-0,003
445,6	-0,003
446	-0,003
446,5	-0,003
446,9	-0,004
447,4	-0,004
447,8	-0,004
448,3	-0,004
448,7	-0,004
449,2	-0,004
449,6	-0,004
450,1	-0,005
450,6	-0,005
451	-0,006
451,5	-0,005
451,9	-0,006
452,4	-0,005
452,8	-0,006
453,3	-0,005
453,7	-0,005
454,2	-0,005
454,6	-0,005
455,1	-0,005
455,5	-0,005
456	-0,005
456,4	-0,006
456,9	-0,006
457,3	-0,006
457,8	-0,006
458,3	-0,006
458,7	-0,006
459,2	-0,005
459,6	-0,005
460,1	-0,005
460,5	-0,005
461	-0,005
461,4	-0,006
461,9	-0,006
462,3	-0,006
462,8	-0,006
463,2	-0,006
463,7	-0,006
464,1	-0,006
464,6	-0,007
465	-0,007
465,5	-0,007
466	-0,007
466,4	-0,007
466,9	-0,007
467,3	-0,007
467,8	-0,007
468,2	-0,008
468,7	-0,008
469,1	-0,008
469,6	-0,008
470	-0,008
470,5	-0,008
470,9	-0,008
471,4	-0,007
471,8	-0,007
472,3	-0,006
472,7	-0,006
473,2	-0,005
473,6	-0,006
474,1	-0,006
474,5	-0,006
475	-0,006
475,4	-0,007
475,9	-0,007
476,4	-0,007
476,8	-0,007
477,3	-0,007
477,7	-0,007
478,2	-0,007
478,6	-0,007
479,1	-0,007
479,5	-0,008
480	-0,008
480,4	-0,008
480,9	-0,008
481,3	-0,008
481,8	-0,008
482,2	-0,008
482,7	-0,008
483,1	-0,008
483,6	-0,009
484	-0,009
484,5	-0,009
484,9	-0,009
485,4	-0,009
485,8	-0,009
486,3	-0,009
486,7	-0,009
487,2	-0,009
487,6	-0,009
488,1	-0,008
488,5	-0,009
489	-0,009
489,4	-0,009
489,9	-0,008
490,4	-0,009
490,8	-0,009
491,3	-0,01
491,7	-0,01
492,2	-0,01
492,6	-0,009
493,1	-0,01
493,5	-0,01
494	-0,009
494,4	-0,009
494,9	-0,009
495,3	-0,009
495,8	-0,009
496,2	-0,009
496,7	-0,01
497,1	-0,01
497,6	-0,01
498	-0,01
498,5	-0,01
498,9	-0,01
499,4	-0,011
499,8	-0,01
500,3	-0,01
500,7	-0,01
501,2	-0,01
501,6	-0,01
502,1	-0,01
502,5	-0,01
503	-0,01
503,4	-0,01
503,9	-0,011
504,3	-0,012
504,8	-0,011
505,2	-0,011
505,7	-0,011
506,1	-0,011
506,6	-0,012
507	-0,011
507,5	-0,011
507,9	-0,011
508,4	-0,011
508,8	-0,011
509,3	-0,012
509,7	-0,011
510,2	-0,012
510,6	-0,011
511,1	-0,011
511,5	-0,012
512	-0,011
512,4	-0,011
512,9	-0,01
513,3	-0,011
513,8	-0,011
514,2	-0,012
514,7	-0,012
515,1	-0,012
515,6	-0,012
516	-0,012
516,5	-0,012
516,9	-0,012
517,4	-0,012
517,8	-0,012
518,3	-0,012
518,7	-0,012
519,2	-0,012
519,6	-0,012
520,1	-0,012
520,5	-0,012
521	-0,012
521,4	-0,012
521,9	-0,013
522,3	-0,013
522,8	-0,013
523,2	-0,013
523,7	-0,012
524,1	-0,013
524,6	-0,013
525	-0,013
525,5	-0,012
525,9	-0,012
526,4	-0,013
526,8	-0,013
527,3	-0,013
527,7	-0,012
528,2	-0,012
528,6	-0,012
529,1	-0,012
529,5	-0,012
530	-0,013
530,4	-0,013
530,9	-0,014
531,3	-0,014
531,8	-0,014
532,2	-0,014
532,6	-0,014
533,1	-0,013
533,5	-0,013
534	-0,013
534,4	-0,013
534,9	-0,014
535,3	-0,014
535,8	-0,014
536,2	-0,014
536,7	-0,014
537,1	-0,015
537,6	-0,014
538	-0,014
538,5	-0,014
538,9	-0,014
539,4	-0,014
539,8	-0,015
540,3	-0,015
540,7	-0,015
541,2	-0,015
541,6	-0,016
542,1	-0,015
542,5	-0,015
543	-0,015
543,4	-0,015
543,9	-0,014
544,3	-0,014
544,8	-0,014
545,2	-0,013
545,7	-0,013
546,1	-0,014
546,5	-0,014
547	-0,014
547,4	-0,014
547,9	-0,014
548,3	-0,015
548,8	-0,015
549,2	-0,015
549,7	-0,015
550,1	-0,015
550,6	-0,015
551	-0,015
551,5	-0,016
551,9	-0,015
552,4	-0,016
552,8	-0,016
553,3	-0,016
553,7	-0,016
554,2	-0,016
554,6	-0,016
555,1	-0,015
555,5	-0,015
555,9	-0,014
556,4	-0,014
556,8	-0,014
557,3	-0,014
557,7	-0,014
558,2	-0,015
558,6	-0,015
559,1	-0,016
559,5	-0,016
560	-0,016
560,4	-0,016
560,9	-0,016
561,3	-0,016
561,8	-0,015
562,2	-0,015
562,7	-0,015
563,1	-0,015
563,6	-0,015
564	-0,016
564,4	-0,016
564,9	-0,016
565,3	-0,017
565,8	-0,016
566,2	-0,016
566,7	-0,017
567,1	-0,016
567,6	-0,017
568	-0,017
568,5	-0,017
568,9	-0,017
569,4	-0,017
569,8	-0,017
570,3	-0,017
570,7	-0,017
571,1	-0,017
571,6	-0,016
572	-0,016
572,5	-0,016
572,9	-0,016
573,4	-0,017
573,8	-0,017
574,3	-0,017
574,7	-0,017
575,2	-0,017
575,6	-0,017
576,1	-0,017
576,5	-0,017
576,9	-0,017
577,4	-0,017
577,8	-0,017
578,3	-0,017
578,7	-0,017
579,2	-0,017
579,6	-0,016
580,1	-0,016
580,5	-0,017
581	-0,017
581,4	-0,017
581,9	-0,017
582,3	-0,017
582,7	-0,017
583,2	-0,017
583,6	-0,017
584,1	-0,017
584,5	-0,017
585	-0,018
585,4	-0,018
585,9	-0,017
586,3	-0,018
586,8	-0,018
587,2	-0,018
587,6	-0,018
588,1	-0,017
588,5	-0,017
589	-0,018
589,4	-0,017
589,9	-0,017
590,3	-0,017
590,8	-0,017
591,2	-0,018
591,7	-0,018
592,1	-0,018
592,5	-0,018
593	-0,018
593,4	-0,019
593,9	-0,019
594,3	-0,019
594,8	-0,019
595,2	-0,018
595,7	-0,019
596,1	-0,018
596,6	-0,019
597	-0,019
597,4	-0,018
597,9	-0,018
598,3	-0,018
598,8	-0,018
599,2	-0,018
599,7	-0,018
600,1	-0,018
600,6	-0,018
601	-0,018
601,4	-0,018
601,9	-0,018
602,3	-0,018
602,8	-0,018
603,2	-0,018
603,7	-0,018
604,1	-0,018
604,6	-0,018
605	-0,018
605,4	-0,019
605,9	-0,018
606,3	-0,018
606,8	-0,018
607,2	-0,019
607,7	-0,018
608,1	-0,018
608,6	-0,018
609	-0,018
609,4	-0,018
609,9	-0,018
610,3	-0,018
610,8	-0,018
611,2	-0,019
611,7	-0,019
612,1	-0,019
612,6	-0,02
613	-0,02
613,4	-0,02
613,9	-0,02
614,3	-0,02
614,8	-0,02
615,2	-0,019
615,7	-0,019
616,1	-0,019
616,6	-0,019
617	-0,019
617,4	-0,019
617,9	-0,019
618,3	-0,019
618,8	-0,019
619,2	-0,019
619,7	-0,019
620,1	-0,019
620,5	-0,019
621	-0,019
621,4	-0,019
621,9	-0,019
622,3	-0,019
622,8	-0,019
623,2	-0,02
623,6	-0,02
624,1	-0,019
624,5	-0,019
625	-0,019
625,4	-0,019
625,9	-0,019
626,3	-0,019
626,8	-0,019
627,2	-0,019
627,6	-0,019
628,1	-0,019
628,5	-0,019
629	-0,018
629,4	-0,018
629,9	-0,019
630,3	-0,019
630,7	-0,019
631,2	-0,018
631,6	-0,018
632,1	-0,019
632,5	-0,019
633	-0,019
633,4	-0,018
633,8	-0,019
634,3	-0,019
634,7	-0,019
635,2	-0,019
635,6	-0,019
636,1	-0,019
636,5	-0,019
636,9	-0,019
637,4	-0,019
637,8	-0,019
638,3	-0,019
638,7	-0,019
639,2	-0,019
639,6	-0,019
640	-0,019
640,5	-0,019
640,9	-0,019
641,4	-0,019
641,8	-0,02
642,2	-0,02
642,7	-0,021
643,1	-0,021
643,6	-0,021
644	-0,021
644,5	-0,02
644,9	-0,02
645,3	-0,019
645,8	-0,02
646,2	-0,02
646,7	-0,02
647,1	-0,02
647,6	-0,02
648	-0,02
648,4	-0,02
648,9	-0,021
649,3	-0,021
649,8	-0,021
650,2	-0,021
650,6	-0,021
651,1	-0,021
651,5	-0,021
652	-0,021
652,4	-0,021
652,9	-0,021
653,3	-0,02
653,7	-0,019
654,2	-0,013
654,6	-0,009
655,1	-0,007
655,5	-0,007
655,9	-0,007
656,4	-0,007
656,8	-0,006
657,3	-0,008
657,7	-0,011
658,2	-0,018
658,6	-0,018
659	-0,019
659,5	-0,019
659,9	-0,019
660,4	-0,02
660,8	-0,02
661,2	-0,02
661,7	-0,02
662,1	-0,02
662,6	-0,021
663	-0,02
663,4	-0,021
663,9	-0,02
664,3	-0,021
664,8	-0,021
665,2	-0,02
665,6	-0,02
666,1	-0,02
666,5	-0,02
667	-0,021
667,4	-0,02
667,9	-0,021
668,3	-0,021
668,7	-0,021
669,2	-0,021
669,6	-0,021
670,1	-0,021
670,5	-0,021
670,9	-0,021
671,4	-0,021
671,8	-0,021
672,3	-0,021
672,7	-0,021
673,1	-0,021
673,6	-0,021
674	-0,02
674,5	-0,02
674,9	-0,02
675,3	-0,02
675,8	-0,02
676,2	-0,02
676,7	-0,019
677,1	-0,02
677,5	-0,02
678	-0,02
678,4	-0,02
678,9	-0,02
679,3	-0,021
679,7	-0,02
680,2	-0,02
680,6	-0,02
681,1	-0,02
681,5	-0,02
681,9	-0,021
682,4	-0,021
682,8	-0,021
683,3	-0,021
683,7	-0,021
684,1	-0,021
684,6	-0,021
685	-0,021
685,5	-0,021
685,9	-0,021
686,3	-0,021
686,8	-0,021
687,2	-0,021
687,7	-0,02
688,1	-0,021
688,5	-0,021
689	-0,02
689,4	-0,02
689,9	-0,02
690,3	-0,02
690,7	-0,021
691,2	-0,021
691,6	-0,021
692	-0,021
692,5	-0,021
692,9	-0,021
693,4	-0,021
693,8	-0,021
694,2	-0,021
694,7	-0,021
695,1	-0,021
695,6	-0,021
696	-0,02
696,4	-0,02
696,9	-0,02
697,3	-0,021
697,8	-0,02
698,2	-0,02
698,6	-0,021
699,1	-0,021
699,5	-0,021
699,9	-0,02
700,4	-0,02
700,8	-0,02
701,3	-0,021
701,7	-0,02
702,1	-0,02
702,6	-0,02
703	-0,02
703,5	-0,02
703,9	-0,02
704,3	-0,02
704,8	-0,02
705,2	-0,021
705,6	-0,021
706,1	-0,021
706,5	-0,021
707	-0,021
707,4	-0,021
707,8	-0,021
708,3	-0,021
708,7	-0,022
709,2	-0,022
709,6	-0,022
710	-0,021
710,5	-0,021
710,9	-0,021
711,3	-0,021
711,8	-0,021
712,2	-0,021
712,7	-0,021
713,1	-0,022
713,5	-0,022
714	-0,022
714,4	-0,022
714,8	-0,022
715,3	-0,022
715,7	-0,021
716,2	-0,021
716,6	-0,021
717	-0,021
717,5	-0,022
717,9	-0,022
718,3	-0,022
718,8	-0,022
719,2	-0,022
719,7	-0,022
720,1	-0,022
720,5	-0,021
721	-0,021
721,4	-0,021
721,8	-0,021
722,3	-0,021
722,7	-0,021
723,2	-0,021
723,6	-0,021
724	-0,021
724,5	-0,02
724,9	-0,021
725,3	-0,021
725,8	-0,02
726,2	-0,02
726,7	-0,02
727,1	-0,02
727,5	-0,021
728	-0,021
728,4	-0,021
728,8	-0,021
729,3	-0,021
729,7	-0,022
730,1	-0,022
730,6	-0,022
731	-0,022
731,5	-0,022
731,9	-0,021
732,3	-0,021
732,8	-0,021
733,2	-0,021
733,6	-0,021
734,1	-0,021
734,5	-0,021
734,9	-0,021
735,4	-0,021
735,8	-0,021
736,3	-0,021
736,7	-0,021
737,1	-0,021
737,6	-0,02
738	-0,02
738,4	-0,021
738,9	-0,02
739,3	-0,02
739,7	-0,02
740,2	-0,02
740,6	-0,02
741,1	-0,021
741,5	-0,02
741,9	-0,021
742,4	-0,021
742,8	-0,021
743,2	-0,022
743,7	-0,022
744,1	-0,022
744,5	-0,022
745	-0,022
745,4	-0,022
745,8	-0,021
746,3	-0,021
746,7	-0,021
747,2	-0,021
747,6	-0,021
748	-0,021
748,5	-0,021
748,9	-0,021
749,3	-0,021
749,8	-0,021
750,2	-0,021
750,6	-0,021
751,1	-0,021
751,5	-0,021
751,9	-0,022
752,4	-0,022
752,8	-0,022
753,3	-0,022
753,7	-0,022
754,1	-0,022
754,6	-0,022
755	-0,022
755,4	-0,022
755,9	-0,022
756,3	-0,022
756,7	-0,022
757,2	-0,023
757,6	-0,022
758	-0,022
758,5	-0,022
758,9	-0,022
759,3	-0,022
759,8	-0,022
760,2	-0,021
760,6	-0,021
761,1	-0,021
761,5	-0,022
761,9	-0,021
762,4	-0,021
762,8	-0,021
763,3	-0,022
763,7	-0,022
764,1	-0,022
764,6	-0,022
765	-0,022
765,4	-0,022
765,9	-0,021
766,3	-0,021
766,7	-0,021
767,2	-0,021
767,6	-0,021
768	-0,021
768,5	-0,021
768,9	-0,021
769,3	-0,021
769,8	-0,021
770,2	-0,021
770,6	-0,021
771,1	-0,021
771,5	-0,021
771,9	-0,021
772,4	-0,021
772,8	-0,021
773,2	-0,021
773,7	-0,021
774,1	-0,021
774,5	-0,021
775	-0,021
775,4	-0,021
775,8	-0,021
776,3	-0,022
776,7	-0,022
777,1	-0,022
777,6	-0,021
778	-0,021
778,4	-0,021
778,9	-0,021
779,3	-0,021
779,7	-0,021
780,2	-0,022
780,6	-0,022
781	-0,022
781,5	-0,021
781,9	-0,022
782,3	-0,022
782,8	-0,021
783,2	-0,022
783,6	-0,021
784,1	-0,022
784,5	-0,022
784,9	-0,022
785,4	-0,022
785,8	-0,022
786,2	-0,022
786,7	-0,022
787,1	-0,022
787,5	-0,022
788	-0,021
788,4	-0,021
788,8	-0,021
789,3	-0,021
789,7	-0,021
790,1	-0,021
790,6	-0,021
791	-0,021
791,4	-0,022
791,9	-0,021
792,3	-0,022
792,7	-0,022
793,2	-0,021
793,6	-0,021
794	-0,021
794,5	-0,021
794,9	-0,021
795,3	-0,021
795,8	-0,021
796,2	-0,021
796,6	-0,021
797,1	-0,021
797,5	-0,021
797,9	-0,021
798,4	-0,021
798,8	-0,021
799,2	-0,021
799,7	-0,021
800,1	-0,021
800,5	-0,021
801	-0,021
801,4	-0,021
801,8	-0,021
802,2	-0,021
802,7	-0,021
803,1	-0,021
803,5	-0,021
804	-0,021
804,4	-0,021
804,8	-0,021
805,3	-0,021
805,7	-0,021
806,1	-0,022
806,6	-0,022
807	-0,022
807,4	-0,022
807,9	-0,021
808,3	-0,022
808,7	-0,022
809,2	-0,022
809,6	-0,022
810	-0,022
810,4	-0,022
810,9	-0,022
811,3	-0,022
811,7	-0,021
812,2	-0,021
812,6	-0,021
813	-0,021
813,5	-0,021
813,9	-0,021
814,3	-0,021
814,8	-0,021
815,2	-0,021
815,6	-0,021
816,1	-0,021
816,5	-0,021
816,9	-0,022
817,3	-0,022
817,8	-0,022
818,2	-0,022
818,6	-0,022
819,1	-0,022
819,5	-0,022
819,9	-0,022
820,4	-0,022
820,8	-0,022
821,2	-0,022
821,7	-0,021
822,1	-0,021
822,5	-0,021
822,9	-0,021
823,4	-0,021
823,8	-0,021
824,2	-0,021
824,7	-0,022
825,1	-0,022
825,5	-0,022
826	-0,022
826,4	-0,022
826,8	-0,022
827,3	-0,022
827,7	-0,022
828,1	-0,021
828,5	-0,021
829	-0,021
829,4	-0,022
829,8	-0,021
830,3	-0,021
830,7	-0,022
831,1	-0,022
831,6	-0,022
832	-0,022
832,4	-0,021
832,8	-0,022
833,3	-0,022
833,7	-0,021
834,1	-0,021
834,6	-0,021
835	-0,021
835,4	-0,021
835,8	-0,021
836,3	-0,021
836,7	-0,021
837,1	-0,021
837,6	-0,021
838	-0,021
838,4	-0,021
838,9	-0,021
839,3	-0,021
839,7	-0,021
840,1	-0,021
840,6	-0,022
841	-0,022
841,4	-0,022
841,9	-0,022
842,3	-0,022
842,7	-0,022
843,1	-0,022
843,6	-0,022
844	-0,022
844,4	-0,022
844,9	-0,021
845,3	-0,021
845,7	-0,021
846,2	-0,021
846,6	-0,021
847	-0,021
847,4	-0,021
847,9	-0,021
848,3	-0,021
848,7	-0,021
849,2	-0,021
849,6	-0,022
850	-0,022
850,4	-0,022
850,9	-0,022
851,3	-0,022
851,7	-0,022
852,2	-0,022
852,6	-0,022
853	-0,021
853,4	-0,021
853,9	-0,021
854,3	-0,021
854,7	-0,021
855,2	-0,022
855,6	-0,022
856	-0,022
856,4	-0,022
856,9	-0,022
857,3	-0,022
857,7	-0,022
858,2	-0,021
858,6	-0,021
859	-0,022
859,4	-0,022
859,9	-0,022
860,3	-0,022
860,7	-0,022
861,1	-0,022
861,6	-0,022
862	-0,022
862,4	-0,022
862,9	-0,022
863,3	-0,022
863,7	-0,022
864,1	-0,022
864,6	-0,022
865	-0,022
865,4	-0,022
865,9	-0,022
866,3	-0,022
866,7	-0,022
867,1	-0,022
867,6	-0,021
868	-0,021
868,4	-0,021
868,8	-0,021
869,3	-0,021
869,7	-0,021
870,1	-0,021
870,6	-0,021
871	-0,021
871,4	-0,022
871,8	-0,022
872,3	-0,022
872,7	-0,022
873,1	-0,022
873,5	-0,023
874	-0,023
874,4	-0,023
874,8	-0,023
875,3	-0,023
875,7	-0,023
876,1	-0,023
876,5	-0,022
877	-0,022
877,4	-0,022
877,8	-0,022
878,2	-0,021
878,7	-0,021
879,1	-0,021
879,5	-0,021
879,9	-0,021
880,4	-0,021
880,8	-0,021
881,2	-0,022
881,7	-0,022
882,1	-0,021
882,5	-0,022
882,9	-0,022
883,4	-0,022
883,8	-0,022
884,2	-0,022
884,6	-0,021
885,1	-0,022
885,5	-0,022
885,9	-0,022
886,3	-0,022
886,8	-0,022
887,2	-0,022
887,6	-0,022
888	-0,022
888,5	-0,022
888,9	-0,022
889,3	-0,022
889,8	-0,022
890,2	-0,021
890,6	-0,021
891	-0,021
891,5	-0,022
891,9	-0,021
892,3	-0,022
892,7	-0,022
893,2	-0,022
893,6	-0,022
894	-0,022
894,4	-0,022
894,9	-0,022
895,3	-0,022
895,7	-0,022
896,1	-0,022
896,6	-0,022
897	-0,022
897,4	-0,022
897,8	-0,022
898,3	-0,022
898,7	-0,022
899,1	-0,022
899,5	-0,022
900	-0,022
900,4	-0,022
900,8	-0,022
901,2	-0,022
901,7	-0,022
902,1	-0,022
902,5	-0,022
902,9	-0,022
903,4	-0,022
903,8	-0,022
904,2	-0,022
904,6	-0,021
905,1	-0,021
905,5	-0,022
905,9	-0,022
906,3	-0,022
906,8	-0,022
907,2	-0,023
907,6	-0,023
908	-0,023
908,5	-0,023
908,9	-0,023
909,3	-0,023
909,7	-0,023
910,2	-0,022
910,6	-0,022
911	-0,022
911,4	-0,022
911,9	-0,022
912,3	-0,022
912,7	-0,022
913,1	-0,022
913,6	-0,022
914	-0,022
914,4	-0,022
914,8	-0,023
915,3	-0,023
915,7	-0,023
916,1	-0,023
916,5	-0,023
916,9	-0,023
917,4	-0,023
917,8	-0,023
918,2	-0,023
918,6	-0,023
919,1	-0,023
919,5	-0,022
919,9	-0,022
920,3	-0,022
920,8	-0,022
921,2	-0,023
921,6	-0,023
922	-0,023
922,5	-0,024
922,9	-0,024
923,3	-0,024
923,7	-0,024
924,2	-0,023
924,6	-0,022
925	-0,022
925,4	-0,023
925,8	-0,022
926,3	-0,022
926,7	-0,021
927,1	-0,021
927,5	-0,021
928	-0,021
928,4	-0,02
928,8	-0,02
929,2	-0,02
929,7	-0,02
930,1	-0,02
930,5	-0,02
930,9	-0,02
931,3	-0,021
931,8	-0,021
932,2	-0,021
932,6	-0,022
933	-0,022
933,5	-0,022
933,9	-0,022
934,3	-0,022
934,7	-0,022
935,2	-0,022
935,6	-0,022
936	-0,022
936,4	-0,021
936,8	-0,022
937,3	-0,022
937,7	-0,021
938,1	-0,022
938,5	-0,022
939	-0,022
939,4	-0,023
939,8	-0,022
940,2	-0,023
940,6	-0,023
941,1	-0,023
941,5	-0,023
941,9	-0,023
942,3	-0,023
942,8	-0,022
943,2	-0,022
943,6	-0,023
944	-0,022
944,4	-0,022
944,9	-0,022
945,3	-0,023
945,7	-0,023
946,1	-0,022
946,6	-0,023
947	-0,022
947,4	-0,022
947,8	-0,022
948,2	-0,022
948,7	-0,023
949,1	-0,023
949,5	-0,022
949,9	-0,023
950,3	-0,023
950,8	-0,023
951,2	-0,022
951,6	-0,022
952	-0,022
952,5	-0,022
952,9	-0,022
953,3	-0,022
953,7	-0,022
954,1	-0,022
954,6	-0,021
955	-0,021
955,4	-0,021
955,8	-0,021
956,2	-0,021
956,7	-0,021
957,1	-0,022
957,5	-0,022
957,9	-0,023
958,3	-0,023
958,8	-0,022
959,2	-0,022
959,6	-0,022
960	-0,022
960,5	-0,022
960,9	-0,021
961,3	-0,022
961,7	-0,022
962,1	-0,022
962,6	-0,022
963	-0,022
963,4	-0,021
963,8	-0,021
964,2	-0,021
964,7	-0,021
965,1	-0,021
965,5	-0,021
965,9	-0,02
966,3	-0,021
966,8	-0,021
967,2	-0,021
967,6	-0,022
968	-0,022
968,4	-0,022
968,9	-0,023
969,3	-0,023
969,7	-0,023
970,1	-0,022
970,5	-0,022
971	-0,022
971,4	-0,021
971,8	-0,022
972,2	-0,022
972,6	-0,022
973,1	-0,022
973,5	-0,022
973,9	-0,022
974,3	-0,022
974,7	-0,022
975,2	-0,022
975,6	-0,022
976	-0,022
976,4	-0,022
976,8	-0,023
977,3	-0,023
977,7	-0,023
978,1	-0,023
978,5	-0,023
978,9	-0,023
979,4	-0,023
979,8	-0,023
980,2	-0,022
980,6	-0,022
981	-0,021
981,5	-0,021
981,9	-0,021
982,3	-0,02
982,7	-0,02
983,1	-0,021
983,6	-0,021
984	-0,021
984,4	-0,022
984,8	-0,022
985,2	-0,022
985,6	-0,022
986,1	-0,022
986,5	-0,022
986,9	-0,021
987,3	-0,021
987,7	-0,022
988,2	-0,022
988,6	-0,022
989	-0,022
989,4	-0,022
989,8	-0,022
990,3	-0,023
990,7	-0,023
991,1	-0,023
991,5	-0,023
991,9	-0,023
992,3	-0,023
992,8	-0,023
993,2	-0,023
993,6	-0,023
994	-0,023
994,4	-0,023
994,9	-0,023
995,3	-0,023
995,7	-0,023
996,1	-0,022
996,5	-0,022
996,9	-0,022
997,4	-0,023
997,8	-0,022
998,2	-0,023
998,6	-0,023
999	-0,023
999,5	-0,023
999,9	-0,024
1000,3	-0,024
1000,7	-0,024
1001,1	-0,024
1001,5	-0,024
1002	-0,024
1002,4	-0,024
1002,8	-0,024
1003,2	-0,024
1003,6	-0,024
1004	-0,024
1004,5	-0,023
1004,9	-0,023
1005,3	-0,023
1005,7	-0,023
1006,1	-0,022
1006,6	-0,023
1007	-0,022
1007,4	-0,022
1007,8	-0,022
1008,2	-0,022
1008,6	-0,022
1009,1	-0,022
1009,5	-0,022
1009,9	-0,021
1010,3	-0,021
1010,7	-0,021
1011,1	-0,021
1011,6	-0,021
1012	-0,022
1012,4	-0,022
1012,8	-0,023
1013,2	-0,023
1013,6	-0,023
1014,1	-0,023
1014,5	-0,024
1014,9	-0,024
1015,3	-0,024
1015,7	-0,024
1016,1	-0,024
1016,6	-0,024
1017	-0,023
1017,4	-0,023
1017,8	-0,022
1018,2	-0,023
1018,6	-0,023
1019,1	-0,023
1019,5	-0,023
1019,9	-0,022
1020,3	-0,022
1020,7	-0,022
1021,1	-0,021
1021,6	-0,021
1022	-0,021
1022,4	-0,022
1022,8	-0,021
1023,2	-0,021
1023,6	-0,022
1024,1	-0,022
1024,5	-0,022
1024,9	-0,022
1025,3	-0,022
1025,7	-0,022
1026,1	-0,023
1026,6	-0,022
1027	-0,023
1027,4	-0,023
1027,8	-0,023
1028,2	-0,023
1028,6	-0,023
1029	-0,023
1029,5	-0,023
1029,9	-0,023
1030,3	-0,022
1030,7	-0,022
1031,1	-0,022
1031,5	-0,022
1032	-0,022
1032,4	-0,022
1032,8	-0,023
1033,2	-0,023
1033,6	-0,023
1034	-0,024
1034,4	-0,024
1034,9	-0,024
1035,3	-0,024
1035,7	-0,024
1036,1	-0,024
1036,5	-0,024
1036,9	-0,024
1037,4	-0,024
1037,8	-0,024
1038,2	-0,024
1038,6	-0,024
1039	-0,024
1039,4	-0,024
1039,8	-0,024
1040,3	-0,024
1040,7	-0,024
1041,1	-0,023
1041,5	-0,022
1041,9	-0,022
1042,3	-0,022
1042,7	-0,023
1043,2	-0,022
1043,6	-0,022
1044	-0,022
1044,4	-0,023
1044,8	-0,023
1045,2	-0,023
1045,6	-0,022
1046,1	-0,023
1046,5	-0,023
1046,9	-0,022
1047,3	-0,023
1047,7	-0,023
1048,1	-0,023
1048,5	-0,023
1049	-0,022
1049,4	-0,022
1049,8	-0,022
1050,2	-0,022
1050,6	-0,022
1051	-0,022
1051,4	-0,023
1051,9	-0,024
1052,3	-0,024
1052,7	-0,024
1053,1	-0,023
1053,5	-0,023
1053,9	-0,023
1054,3	-0,022
1054,8	-0,021
1055,2	-0,021
1055,6	-0,022
1056	-0,023
1056,4	-0,023
1056,8	-0,023
1057,2	-0,024
1057,6	-0,024
1058,1	-0,024
1058,5	-0,023
1058,9	-0,022
1059,3	-0,021
1059,7	-0,021
1060,1	-0,022
1060,5	-0,022
1061	-0,022
1061,4	-0,022
1061,8	-0,023
1062,2	-0,023
1062,6	-0,023
1063	-0,022
1063,4	-0,022
1063,8	-0,022
1064,3	-0,022
1064,7	-0,022
1065,1	-0,022
1065,5	-0,022
1065,9	-0,022
1066,3	-0,022
1066,7	-0,023
1067,1	-0,023
1067,6	-0,023
1068	-0,022
1068,4	-0,022
1068,8	-0,023
1069,2	-0,022
1069,6	-0,022
1070	-0,022
1070,4	-0,022
1070,9	-0,024
1071,3	-0,024
1071,7	-0,024
1072,1	-0,024
1072,5	-0,024
1072,9	-0,023
1073,3	-0,023
1073,7	-0,023
1074,2	-0,022
1074,6	-0,022
1075	-0,022
1075,4	-0,022
1075,8	-0,023
1076,2	-0,023
1076,6	-0,023
1077	-0,021
1077,5	-0,022
1077,9	-0,024
1078,3	-0,025
1078,7	-0,024
1079,1	-0,025
1079,5	-0,025
1079,9	-0,027
1080,3	-0,027
1080,7	-0,024
1081,2	-0,024
1081,6	-0,024
1082	-0,025
1082,4	-0,025
1082,8	-0,025
1083,2	-0,025
1083,6	-0,027
1084	-0,026
1084,5	-0,026
1084,9	-0,026
1085,3	-0,024
1085,7	-0,027
1086,1	-0,028
1086,5	-0,026
1086,9	-0,027
1087,3	-0,027
1087,7	-0,028
1088,2	-0,029
1088,6	-0,027
1089	-0,027
1089,4	-0,029
1089,8	-0,03
1090,2	-0,03
1090,6	-0,027
1091	-0,026
1091,4	-0,028
1091,9	-0,026
1092,3	-0,027
1092,7	-0,024
1093,1	-0,024
1093,5	-0,027
1093,9	-0,028
1094,3	-0,03
1094,7	-0,031
1095,1	-0,031
1095,5	-0,033
1096	-0,034
1096,4	-0,031
1096,8	-0,035
1097,2	-0,029
1097,6	-0,033
1098	-0,038
1098,4	-0,042
1098,8	-0,04
1099,2	-0,046
1099,6	-0,043
1100,1	-0,043
1100,5	-0,034
1100,9	-0,024
1101,3	-0,017
1101,7	-0,018
1102,1	-0,025
1102,5	-0,023
1102,9	-0,035
1103,3	-0,04
1103,7	-0,045
1104,2	-0,057
1104,6	-0,066
1105	-0,064
1105,4	-0,063
1105,8	-0,066
1106,2	-0,068
1106,6	-0,081
1107	-0,078
1107,4	-0,082
1107,8	-0,068
1108,3	-0
