Data from Absorbance_169.txt Node
Date: Fri Nov 13 20:12:39 MSK 2020
User: vat
Spectrometer: MAYP114033
Trigger mode: 0
Integration Time (sec): 8,000000E-3
Scans to average: 10
Electric dark correction enabled: true
Nonlinearity correction enabled: false
Boxcar width: 3
XAxis mode: Wavelengths
Number of Pixels in Spectrum: 2068
>>>>>Begin Spectral Data<<<<<
199,4	-0
199,9	0,569
200,4	0,245
200,8	0,198
201,3	0,076
201,8	0,095
202,2	0,082
202,7	0,095
203,2	0,072
203,6	0,073
204,1	0,066
204,6	0,08
205	0,064
205,5	0,07
206	0,074
206,4	0,077
206,9	0,073
207,4	0,074
207,8	0,071
208,3	0,072
208,8	0,074
209,2	0,07
209,7	0,073
210,2	0,072
210,6	0,067
211,1	0,077
211,5	0,079
212	0,068
212,5	0,066
212,9	0,069
213,4	0,064
213,9	0,059
214,3	0,052
214,8	0,048
215,3	0,058
215,7	0,043
216,2	0,047
216,7	0,061
217,1	0,068
217,6	0,067
218,1	0,065
218,5	0,064
219	0,07
219,5	0,061
219,9	0,057
220,4	0,055
220,9	0,053
221,3	0,049
221,8	0,044
222,3	0,055
222,7	0,051
223,2	0,063
223,6	0,064
224,1	0,063
224,6	0,078
225	0,102
225,5	0,101
226	0,101
226,4	0,086
226,9	0,094
227,4	0,103
227,8	0,102
228,3	0,083
228,8	0,093
229,2	0,099
229,7	0,108
230,2	0,098
230,6	0,093
231,1	0,096
231,5	0,088
232	0,074
232,5	0,085
232,9	0,078
233,4	0,098
233,9	0,08
234,3	0,079
234,8	0,079
235,3	0,077
235,7	0,067
236,2	0,086
236,7	0,084
237,1	0,115
237,6	0,119
238,1	0,124
238,5	0,138
239	0,137
239,4	0,124
239,9	0,119
240,4	0,114
240,8	0,115
241,3	0,125
241,8	0,124
242,2	0,124
242,7	0,125
243,2	0,122
243,6	0,12
244,1	0,116
244,6	0,114
245	0,113
245,5	0,119
245,9	0,127
246,4	0,132
246,9	0,135
247,3	0,135
247,8	0,138
248,3	0,142
248,7	0,15
249,2	0,151
249,7	0,157
250,1	0,161
250,6	0,162
251	0,163
251,5	0,166
252	0,163
252,4	0,166
252,9	0,165
253,4	0,165
253,8	0,167
254,3	0,169
254,8	0,169
255,2	0,172
255,7	0,174
256,1	0,177
256,6	0,179
257,1	0,181
257,5	0,183
258	0,188
258,5	0,192
258,9	0,195
259,4	0,199
259,9	0,204
260,3	0,209
260,8	0,215
261,2	0,218
261,7	0,223
262,2	0,227
262,6	0,232
263,1	0,237
263,6	0,242
264	0,246
264,5	0,251
264,9	0,256
265,4	0,261
265,9	0,266
266,3	0,27
266,8	0,276
267,3	0,281
267,7	0,286
268,2	0,291
268,7	0,297
269,1	0,303
269,6	0,31
270	0,316
270,5	0,322
271	0,327
271,4	0,332
271,9	0,337
272,4	0,341
272,8	0,345
273,3	0,348
273,7	0,352
274,2	0,356
274,7	0,361
275,1	0,364
275,6	0,368
276,1	0,371
276,5	0,376
277	0,379
277,4	0,382
277,9	0,385
278,4	0,388
278,8	0,391
279,3	0,394
279,8	0,395
280,2	0,397
280,7	0,398
281,1	0,4
281,6	0,4
282,1	0,4
282,5	0,401
283	0,4
283,4	0,399
283,9	0,399
284,4	0,397
284,8	0,396
285,3	0,394
285,8	0,392
286,2	0,39
286,7	0,388
287,1	0,384
287,6	0,381
288,1	0,377
288,5	0,372
289	0,368
289,5	0,363
289,9	0,358
290,4	0,353
290,8	0,347
291,3	0,342
291,8	0,336
292,2	0,33
292,7	0,324
293,1	0,317
293,6	0,31
294,1	0,303
294,5	0,296
295	0,288
295,5	0,281
295,9	0,274
296,4	0,266
296,8	0,259
297,3	0,251
297,8	0,243
298,2	0,236
298,7	0,227
299,1	0,221
299,6	0,213
300,1	0,206
300,5	0,199
301	0,192
301,5	0,185
301,9	0,178
302,4	0,171
302,8	0,165
303,3	0,158
303,8	0,152
304,2	0,146
304,7	0,141
305,1	0,135
305,6	0,13
306,1	0,125
306,5	0,12
307	0,115
307,4	0,111
307,9	0,107
308,4	0,103
308,8	0,098
309,3	0,095
309,8	0,092
310,2	0,088
310,7	0,085
311,1	0,082
311,6	0,079
312,1	0,077
312,5	0,074
313	0,072
313,4	0,069
313,9	0,067
314,4	0,064
314,8	0,062
315,3	0,06
315,7	0,059
316,2	0,057
316,7	0,056
317,1	0,055
317,6	0,054
318	0,053
318,5	0,052
319	0,051
319,4	0,049
319,9	0,049
320,3	0,047
320,8	0,046
321,3	0,045
321,7	0,044
322,2	0,043
322,6	0,043
323,1	0,043
323,6	0,042
324	0,042
324,5	0,041
324,9	0,041
325,4	0,041
325,9	0,041
326,3	0,04
326,8	0,04
327,2	0,039
327,7	0,039
328,2	0,039
328,6	0,039
329,1	0,038
329,5	0,038
330	0,038
330,5	0,037
330,9	0,037
331,4	0,037
331,8	0,036
332,3	0,036
332,8	0,036
333,2	0,036
333,7	0,036
334,1	0,035
334,6	0,035
335,1	0,035
335,5	0,035
336	0,035
336,4	0,035
336,9	0,035
337,4	0,035
337,8	0,035
338,3	0,035
338,7	0,035
339,2	0,035
339,7	0,035
340,1	0,035
340,6	0,035
341	0,034
341,5	0,034
342	0,034
342,4	0,033
342,9	0,033
343,3	0,033
343,8	0,033
344,2	0,033
344,7	0,033
345,2	0,033
345,6	0,033
346,1	0,033
346,5	0,033
347	0,033
347,5	0,033
347,9	0,033
348,4	0,033
348,8	0,032
349,3	0,032
349,8	0,031
350,2	0,031
350,7	0,031
351,1	0,031
351,6	0,031
352	0,031
352,5	0,031
353	0,031
353,4	0,031
353,9	0,031
354,3	0,03
354,8	0,03
355,3	0,03
355,7	0,03
356,2	0,03
356,6	0,03
357,1	0,03
357,5	0,03
358	0,03
358,5	0,03
358,9	0,03
359,4	0,03
359,8	0,03
360,3	0,03
360,8	0,03
361,2	0,03
361,7	0,03
362,1	0,03
362,6	0,03
363	0,03
363,5	0,03
364	0,029
364,4	0,03
364,9	0,029
365,3	0,03
365,8	0,029
366,3	0,029
366,7	0,029
367,2	0,028
367,6	0,028
368,1	0,028
368,5	0,028
369	0,028
369,5	0,028
369,9	0,028
370,4	0,029
370,8	0,028
371,3	0,028
371,7	0,028
372,2	0,028
372,7	0,028
373,1	0,028
373,6	0,027
374	0,027
374,5	0,028
374,9	0,028
375,4	0,028
375,9	0,028
376,3	0,027
376,8	0,027
377,2	0,027
377,7	0,027
378,2	0,027
378,6	0,027
379,1	0,027
379,5	0,027
380	0,027
380,4	0,027
380,9	0,026
381,4	0,025
381,8	0,025
382,3	0,025
382,7	0,025
383,2	0,025
383,6	0,025
384,1	0,025
384,6	0,025
385	0,025
385,5	0,025
385,9	0,026
386,4	0,026
386,8	0,026
387,3	0,025
387,7	0,026
388,2	0,026
388,7	0,026
389,1	0,027
389,6	0,027
390	0,026
390,5	0,026
390,9	0,026
391,4	0,025
391,9	0,026
392,3	0,026
392,8	0,025
393,2	0,025
393,7	0,025
394,1	0,025
394,6	0,026
395,1	0,025
395,5	0,025
396	0,025
396,4	0,025
396,9	0,024
397,3	0,024
397,8	0,024
398,2	0,023
398,7	0,023
399,2	0,023
399,6	0,023
400,1	0,024
400,5	0,024
401	0,024
401,4	0,024
401,9	0,023
402,4	0,023
402,8	0,023
403,3	0,023
403,7	0,023
404,2	0,023
404,6	0,023
405,1	0,023
405,5	0,023
406	0,022
406,5	0,022
406,9	0,022
407,4	0,022
407,8	0,022
408,3	0,022
408,7	0,022
409,2	0,022
409,6	0,022
410,1	0,022
410,6	0,023
411	0,023
411,5	0,022
411,9	0,023
412,4	0,022
412,8	0,022
413,3	0,022
413,7	0,022
414,2	0,022
414,7	0,022
415,1	0,022
415,6	0,022
416	0,023
416,5	0,023
416,9	0,022
417,4	0,022
417,8	0,023
418,3	0,022
418,8	0,022
419,2	0,022
419,7	0,022
420,1	0,022
420,6	0,022
421	0,022
421,5	0,022
421,9	0,022
422,4	0,022
422,8	0,022
423,3	0,022
423,8	0,022
424,2	0,021
424,7	0,021
425,1	0,021
425,6	0,021
426	0,021
426,5	0,021
426,9	0,021
427,4	0,021
427,9	0,021
428,3	0,02
428,8	0,021
429,2	0,021
429,7	0,021
430,1	0,021
430,6	0,02
431	0,02
431,5	0,021
431,9	0,021
432,4	0,021
432,8	0,022
433,3	0,022
433,8	0,022
434,2	0,022
434,7	0,022
435,1	0,021
435,6	0,021
436	0,02
436,5	0,02
436,9	0,02
437,4	0,019
437,8	0,019
438,3	0,019
438,8	0,019
439,2	0,02
439,7	0,02
440,1	0,02
440,6	0,021
441	0,021
441,5	0,021
441,9	0,021
442,4	0,021
442,8	0,021
443,3	0,02
443,7	0,02
444,2	0,02
444,7	0,02
445,1	0,02
445,6	0,02
446	0,021
446,5	0,02
446,9	0,02
447,4	0,02
447,8	0,021
448,3	0,02
448,7	0,02
449,2	0,02
449,6	0,02
450,1	0,02
450,6	0,019
451	0,02
451,5	0,02
451,9	0,02
452,4	0,02
452,8	0,02
453,3	0,02
453,7	0,02
454,2	0,019
454,6	0,019
455,1	0,019
455,5	0,019
456	0,02
456,4	0,02
456,9	0,019
457,3	0,02
457,8	0,019
458,3	0,019
458,7	0,019
459,2	0,019
459,6	0,018
460,1	0,018
460,5	0,019
461	0,019
461,4	0,019
461,9	0,019
462,3	0,019
462,8	0,019
463,2	0,019
463,7	0,019
464,1	0,019
464,6	0,019
465	0,019
465,5	0,019
466	0,019
466,4	0,019
466,9	0,019
467,3	0,018
467,8	0,018
468,2	0,018
468,7	0,018
469,1	0,018
469,6	0,018
470	0,018
470,5	0,018
470,9	0,019
471,4	0,019
471,8	0,019
472,3	0,019
472,7	0,019
473,2	0,019
473,6	0,019
474,1	0,019
474,5	0,018
475	0,018
475,4	0,017
475,9	0,017
476,4	0,017
476,8	0,017
477,3	0,017
477,7	0,017
478,2	0,018
478,6	0,018
479,1	0,018
479,5	0,018
480	0,018
480,4	0,018
480,9	0,018
481,3	0,018
481,8	0,018
482,2	0,018
482,7	0,018
483,1	0,019
483,6	0,018
484	0,019
484,5	0,018
484,9	0,018
485,4	0,018
485,8	0,017
486,3	0,017
486,7	0,017
487,2	0,017
487,6	0,016
488,1	0,017
488,5	0,017
489	0,017
489,4	0,016
489,9	0,016
490,4	0,016
490,8	0,017
491,3	0,016
491,7	0,017
492,2	0,016
492,6	0,017
493,1	0,017
493,5	0,017
494	0,017
494,4	0,017
494,9	0,016
495,3	0,016
495,8	0,016
496,2	0,016
496,7	0,016
497,1	0,017
497,6	0,017
498	0,017
498,5	0,017
498,9	0,017
499,4	0,016
499,8	0,016
500,3	0,016
500,7	0,016
501,2	0,016
501,6	0,016
502,1	0,016
502,5	0,016
503	0,016
503,4	0,017
503,9	0,016
504,3	0,016
504,8	0,016
505,2	0,016
505,7	0,016
506,1	0,015
506,6	0,015
507	0,015
507,5	0,015
507,9	0,015
508,4	0,015
508,8	0,015
509,3	0,015
509,7	0,015
510,2	0,014
510,6	0,014
511,1	0,015
511,5	0,014
512	0,014
512,4	0,015
512,9	0,015
513,3	0,015
513,8	0,015
514,2	0,015
514,7	0,015
515,1	0,015
515,6	0,014
516	0,014
516,5	0,014
516,9	0,014
517,4	0,014
517,8	0,014
518,3	0,014
518,7	0,014
519,2	0,014
519,6	0,014
520,1	0,015
520,5	0,014
521	0,014
521,4	0,014
521,9	0,014
522,3	0,014
522,8	0,014
523,2	0,014
523,7	0,015
524,1	0,015
524,6	0,015
525	0,015
525,5	0,015
525,9	0,015
526,4	0,015
526,8	0,014
527,3	0,014
527,7	0,014
528,2	0,014
528,6	0,014
529,1	0,013
529,5	0,013
530	0,013
530,4	0,013
530,9	0,013
531,3	0,013
531,8	0,014
532,2	0,014
532,6	0,014
533,1	0,014
533,5	0,014
534	0,013
534,4	0,013
534,9	0,013
535,3	0,013
535,8	0,013
536,2	0,012
536,7	0,013
537,1	0,013
537,6	0,013
538	0,014
538,5	0,014
538,9	0,014
539,4	0,014
539,8	0,014
540,3	0,014
540,7	0,014
541,2	0,014
541,6	0,014
542,1	0,014
542,5	0,013
543	0,013
543,4	0,013
543,9	0,012
544,3	0,012
544,8	0,012
545,2	0,012
545,7	0,012
546,1	0,012
546,5	0,012
547	0,012
547,4	0,012
547,9	0,012
548,3	0,012
548,8	0,012
549,2	0,013
549,7	0,012
550,1	0,012
550,6	0,013
551	0,013
551,5	0,013
551,9	0,013
552,4	0,013
552,8	0,012
553,3	0,012
553,7	0,012
554,2	0,012
554,6	0,011
555,1	0,011
555,5	0,011
555,9	0,012
556,4	0,012
556,8	0,012
557,3	0,012
557,7	0,013
558,2	0,012
558,6	0,012
559,1	0,012
559,5	0,012
560	0,012
560,4	0,011
560,9	0,011
561,3	0,011
561,8	0,011
562,2	0,011
562,7	0,012
563,1	0,012
563,6	0,012
564	0,012
564,4	0,011
564,9	0,012
565,3	0,011
565,8	0,011
566,2	0,011
566,7	0,011
567,1	0,011
567,6	0,011
568	0,011
568,5	0,011
568,9	0,011
569,4	0,011
569,8	0,011
570,3	0,012
570,7	0,011
571,1	0,011
571,6	0,011
572	0,011
572,5	0,011
572,9	0,011
573,4	0,011
573,8	0,011
574,3	0,011
574,7	0,011
575,2	0,011
575,6	0,011
576,1	0,011
576,5	0,011
576,9	0,011
577,4	0,011
577,8	0,011
578,3	0,011
578,7	0,011
579,2	0,011
579,6	0,011
580,1	0,011
580,5	0,011
581	0,011
581,4	0,011
581,9	0,011
582,3	0,011
582,7	0,011
583,2	0,01
583,6	0,011
584,1	0,011
584,5	0,011
585	0,011
585,4	0,011
585,9	0,011
586,3	0,011
586,8	0,011
587,2	0,011
587,6	0,01
588,1	0,01
588,5	0,01
589	0,01
589,4	0,01
589,9	0,011
590,3	0,011
590,8	0,011
591,2	0,011
591,7	0,011
592,1	0,011
592,5	0,011
593	0,011
593,4	0,011
593,9	0,011
594,3	0,01
594,8	0,01
595,2	0,011
595,7	0,011
596,1	0,01
596,6	0,01
597	0,01
597,4	0,01
597,9	0,01
598,3	0,01
598,8	0,01
599,2	0,01
599,7	0,01
600,1	0,01
600,6	0,01
601	0,01
601,4	0,01
601,9	0,01
602,3	0,01
602,8	0,01
603,2	0,01
603,7	0,01
604,1	0,01
604,6	0,01
605	0,009
605,4	0,009
605,9	0,009
606,3	0,009
606,8	0,009
607,2	0,009
607,7	0,009
608,1	0,009
608,6	0,009
609	0,009
609,4	0,009
609,9	0,009
610,3	0,009
610,8	0,009
611,2	0,009
611,7	0,009
612,1	0,009
612,6	0,009
613	0,009
613,4	0,009
613,9	0,009
614,3	0,009
614,8	0,008
615,2	0,008
615,7	0,008
616,1	0,008
616,6	0,008
617	0,008
617,4	0,009
617,9	0,009
618,3	0,009
618,8	0,009
619,2	0,009
619,7	0,009
620,1	0,009
620,5	0,009
621	0,009
621,4	0,009
621,9	0,01
622,3	0,01
622,8	0,009
623,2	0,009
623,6	0,009
624,1	0,009
624,5	0,009
625	0,008
625,4	0,008
625,9	0,009
626,3	0,008
626,8	0,008
627,2	0,009
627,6	0,009
628,1	0,009
628,5	0,009
629	0,008
629,4	0,008
629,9	0,009
630,3	0,008
630,7	0,008
631,2	0,008
631,6	0,008
632,1	0,008
632,5	0,008
633	0,008
633,4	0,008
633,8	0,008
634,3	0,008
634,7	0,008
635,2	0,008
635,6	0,008
636,1	0,008
636,5	0,008
636,9	0,008
637,4	0,008
637,8	0,008
638,3	0,008
638,7	0,008
639,2	0,008
639,6	0,008
640	0,008
640,5	0,009
640,9	0,009
641,4	0,009
641,8	0,008
642,2	0,008
642,7	0,009
643,1	0,008
643,6	0,008
644	0,008
644,5	0,007
644,9	0,008
645,3	0,008
645,8	0,008
646,2	0,008
646,7	0,008
647,1	0,008
647,6	0,008
648	0,008
648,4	0,008
648,9	0,008
649,3	0,008
649,8	0,007
650,2	0,007
650,6	0,007
651,1	0,007
651,5	0,007
652	0,007
652,4	0,007
652,9	0,007
653,3	0,009
653,7	0,012
654,2	0,008
654,6	0,006
655,1	0,004
655,5	0,004
655,9	0,004
656,4	0,003
656,8	0,001
657,3	0,002
657,7	0,003
658,2	0,005
658,6	0,006
659	0,006
659,5	0,006
659,9	0,006
660,4	0,006
660,8	0,006
661,2	0,006
661,7	0,006
662,1	0,006
662,6	0,006
663	0,007
663,4	0,007
663,9	0,007
664,3	0,007
664,8	0,007
665,2	0,007
665,6	0,007
666,1	0,007
666,5	0,007
667	0,007
667,4	0,006
667,9	0,007
668,3	0,007
668,7	0,007
669,2	0,007
669,6	0,006
670,1	0,007
670,5	0,007
670,9	0,007
671,4	0,007
671,8	0,007
672,3	0,007
672,7	0,007
673,1	0,007
673,6	0,007
674	0,007
674,5	0,007
674,9	0,007
675,3	0,007
675,8	0,008
676,2	0,008
676,7	0,008
677,1	0,008
677,5	0,008
678	0,008
678,4	0,008
678,9	0,007
679,3	0,007
679,7	0,007
680,2	0,007
680,6	0,007
681,1	0,007
681,5	0,007
681,9	0,007
682,4	0,007
682,8	0,007
683,3	0,008
683,7	0,007
684,1	0,007
684,6	0,007
685	0,007
685,5	0,007
685,9	0,006
686,3	0,006
686,8	0,006
687,2	0,006
687,7	0,006
688,1	0,006
688,5	0,006
689	0,006
689,4	0,007
689,9	0,007
690,3	0,007
690,7	0,006
691,2	0,007
691,6	0,006
692	0,006
692,5	0,006
692,9	0,006
693,4	0,006
693,8	0,007
694,2	0,007
694,7	0,007
695,1	0,007
695,6	0,007
696	0,007
696,4	0,008
696,9	0,007
697,3	0,007
697,8	0,008
698,2	0,007
698,6	0,007
699,1	0,007
699,5	0,007
699,9	0,007
700,4	0,006
700,8	0,006
701,3	0,006
701,7	0,006
702,1	0,006
702,6	0,006
703	0,006
703,5	0,006
703,9	0,006
704,3	0,006
704,8	0,006
705,2	0,006
705,6	0,006
706,1	0,006
706,5	0,006
707	0,006
707,4	0,006
707,8	0,006
708,3	0,006
708,7	0,005
709,2	0,005
709,6	0,005
710	0,005
710,5	0,006
710,9	0,006
711,3	0,006
711,8	0,006
712,2	0,006
712,7	0,006
713,1	0,006
713,5	0,006
714	0,006
714,4	0,006
714,8	0,006
715,3	0,006
715,7	0,006
716,2	0,006
716,6	0,006
717	0,006
717,5	0,006
717,9	0,007
718,3	0,007
718,8	0,007
719,2	0,007
719,7	0,007
720,1	0,007
720,5	0,007
721	0,006
721,4	0,007
721,8	0,007
722,3	0,006
722,7	0,006
723,2	0,006
723,6	0,006
724	0,006
724,5	0,006
724,9	0,006
725,3	0,006
725,8	0,006
726,2	0,007
726,7	0,007
727,1	0,007
727,5	0,007
728	0,007
728,4	0,007
728,8	0,007
729,3	0,007
729,7	0,007
730,1	0,007
730,6	0,007
731	0,007
731,5	0,007
731,9	0,007
732,3	0,007
732,8	0,007
733,2	0,007
733,6	0,007
734,1	0,007
734,5	0,007
734,9	0,007
735,4	0,007
735,8	0,007
736,3	0,007
736,7	0,007
737,1	0,007
737,6	0,007
738	0,006
738,4	0,006
738,9	0,006
739,3	0,006
739,7	0,006
740,2	0,006
740,6	0,006
741,1	0,006
741,5	0,006
741,9	0,006
742,4	0,006
742,8	0,006
743,2	0,006
743,7	0,006
744,1	0,006
744,5	0,006
745	0,006
745,4	0,006
745,8	0,006
746,3	0,006
746,7	0,006
747,2	0,006
747,6	0,006
748	0,006
748,5	0,006
748,9	0,006
749,3	0,006
749,8	0,006
750,2	0,007
750,6	0,007
751,1	0,007
751,5	0,007
751,9	0,006
752,4	0,007
752,8	0,007
753,3	0,007
753,7	0,006
754,1	0,006
754,6	0,006
755	0,006
755,4	0,006
755,9	0,006
756,3	0,006
756,7	0,006
757,2	0,006
757,6	0,006
758	0,007
758,5	0,007
758,9	0,007
759,3	0,007
759,8	0,006
760,2	0,006
760,6	0,006
761,1	0,006
761,5	0,006
761,9	0,006
762,4	0,006
762,8	0,006
763,3	0,007
763,7	0,006
764,1	0,006
764,6	0,006
765	0,007
765,4	0,006
765,9	0,006
766,3	0,006
766,7	0,006
767,2	0,006
767,6	0,006
768	0,006
768,5	0,006
768,9	0,006
769,3	0,006
769,8	0,006
770,2	0,006
770,6	0,006
771,1	0,006
771,5	0,006
771,9	0,005
772,4	0,005
772,8	0,005
773,2	0,006
773,7	0,006
774,1	0,006
774,5	0,005
775	0,005
775,4	0,005
775,8	0,005
776,3	0,005
776,7	0,005
777,1	0,005
777,6	0,005
778	0,005
778,4	0,005
778,9	0,005
779,3	0,005
779,7	0,005
780,2	0,005
780,6	0,005
781	0,006
781,5	0,005
781,9	0,006
782,3	0,005
782,8	0,005
783,2	0,006
783,6	0,005
784,1	0,005
784,5	0,005
784,9	0,005
785,4	0,005
785,8	0,005
786,2	0,005
786,7	0,005
787,1	0,005
787,5	0,005
788	0,006
788,4	0,006
788,8	0,006
789,3	0,006
789,7	0,006
790,1	0,006
790,6	0,006
791	0,006
791,4	0,006
791,9	0,006
792,3	0,006
792,7	0,006
793,2	0,006
793,6	0,006
794	0,006
794,5	0,006
794,9	0,006
795,3	0,007
795,8	0,007
796,2	0,007
796,6	0,007
797,1	0,007
797,5	0,007
797,9	0,007
798,4	0,007
798,8	0,006
799,2	0,006
799,7	0,006
800,1	0,006
800,5	0,006
801	0,006
801,4	0,006
801,8	0,006
802,2	0,006
802,7	0,007
803,1	0,007
803,5	0,006
804	0,006
804,4	0,006
804,8	0,006
805,3	0,006
805,7	0,006
806,1	0,006
806,6	0,006
807	0,006
807,4	0,006
807,9	0,006
808,3	0,006
808,7	0,007
809,2	0,007
809,6	0,007
810	0,007
810,4	0,008
810,9	0,007
811,3	0,007
811,7	0,007
812,2	0,006
812,6	0,006
813	0,005
813,5	0,005
813,9	0,005
814,3	0,005
814,8	0,005
815,2	0,004
815,6	0,004
816,1	0,004
816,5	0,004
816,9	0,004
817,3	0,005
817,8	0,005
818,2	0,005
818,6	0,005
819,1	0,005
819,5	0,005
819,9	0,005
820,4	0,005
820,8	0,005
821,2	0,004
821,7	0,004
822,1	0,004
822,5	0,004
822,9	0,004
823,4	0,004
823,8	0,005
824,2	0,005
824,7	0,005
825,1	0,005
825,5	0,005
826	0,005
826,4	0,005
826,8	0,005
827,3	0,005
827,7	0,005
828,1	0,005
828,5	0,004
829	0,005
829,4	0,005
829,8	0,005
830,3	0,004
830,7	0,005
831,1	0,005
831,6	0,005
832	0,005
832,4	0,005
832,8	0,005
833,3	0,005
833,7	0,006
834,1	0,005
834,6	0,005
835	0,005
835,4	0,005
835,8	0,005
836,3	0,005
836,7	0,005
837,1	0,004
837,6	0,005
838	0,005
838,4	0,005
838,9	0,005
839,3	0,004
839,7	0,005
840,1	0,004
840,6	0,004
841	0,005
841,4	0,005
841,9	0,005
842,3	0,005
842,7	0,005
843,1	0,005
843,6	0,006
844	0,006
844,4	0,005
844,9	0,005
845,3	0,005
845,7	0,005
846,2	0,006
846,6	0,005
847	0,006
847,4	0,006
847,9	0,006
848,3	0,006
848,7	0,006
849,2	0,006
849,6	0,006
850	0,006
850,4	0,006
850,9	0,006
851,3	0,006
851,7	0,006
852,2	0,006
852,6	0,006
853	0,006
853,4	0,006
853,9	0,006
854,3	0,006
854,7	0,005
855,2	0,005
855,6	0,005
856	0,005
856,4	0,005
856,9	0,005
857,3	0,006
857,7	0,006
858,2	0,006
858,6	0,006
859	0,006
859,4	0,006
859,9	0,006
860,3	0,006
860,7	0,006
861,1	0,005
861,6	0,006
862	0,006
862,4	0,005
862,9	0,006
863,3	0,006
863,7	0,006
864,1	0,006
864,6	0,006
865	0,006
865,4	0,007
865,9	0,006
866,3	0,007
866,7	0,007
867,1	0,006
867,6	0,006
868	0,006
868,4	0,006
868,8	0,006
869,3	0,006
869,7	0,006
870,1	0,006
870,6	0,006
871	0,006
871,4	0,005
871,8	0,005
872,3	0,005
872,7	0,005
873,1	0,005
873,5	0,005
874	0,005
874,4	0,005
874,8	0,005
875,3	0,005
875,7	0,005
876,1	0,005
876,5	0,005
877	0,005
877,4	0,005
877,8	0,006
878,2	0,005
878,7	0,005
879,1	0,005
879,5	0,005
879,9	0,005
880,4	0,005
880,8	0,004
881,2	0,005
881,7	0,005
882,1	0,006
882,5	0,006
882,9	0,006
883,4	0,006
883,8	0,006
884,2	0,006
884,6	0,006
885,1	0,005
885,5	0,005
885,9	0,004
886,3	0,004
886,8	0,004
887,2	0,004
887,6	0,005
888	0,005
888,5	0,005
888,9	0,005
889,3	0,005
889,8	0,006
890,2	0,005
890,6	0,005
891	0,006
891,5	0,006
891,9	0,006
892,3	0,007
892,7	0,007
893,2	0,007
893,6	0,007
894	0,006
894,4	0,006
894,9	0,006
895,3	0,006
895,7	0,006
896,1	0,005
896,6	0,005
897	0,005
897,4	0,005
897,8	0,005
898,3	0,004
898,7	0,004
899,1	0,005
899,5	0,005
900	0,005
900,4	0,005
900,8	0,005
901,2	0,005
901,7	0,005
902,1	0,005
902,5	0,005
902,9	0,006
903,4	0,006
903,8	0,006
904,2	0,006
904,6	0,006
905,1	0,006
905,5	0,006
905,9	0,005
906,3	0,006
906,8	0,006
907,2	0,006
907,6	0,006
908	0,006
908,5	0,006
908,9	0,006
909,3	0,006
909,7	0,006
910,2	0,006
910,6	0,006
911	0,006
911,4	0,006
911,9	0,006
912,3	0,005
912,7	0,005
913,1	0,005
913,6	0,004
914	0,004
914,4	0,004
914,8	0,004
915,3	0,004
915,7	0,004
916,1	0,004
916,5	0,004
916,9	0,004
917,4	0,004
917,8	0,004
918,2	0,004
918,6	0,004
919,1	0,004
919,5	0,004
919,9	0,004
920,3	0,004
920,8	0,004
921,2	0,005
921,6	0,005
922	0,006
922,5	0,006
922,9	0,006
923,3	0,006
923,7	0,006
924,2	0,006
924,6	0,005
925	0,005
925,4	0,004
925,8	0,004
926,3	0,005
926,7	0,005
927,1	0,005
927,5	0,005
928	0,005
928,4	0,005
928,8	0,005
929,2	0,005
929,7	0,005
930,1	0,006
930,5	0,006
930,9	0,005
931,3	0,006
931,8	0,005
932,2	0,005
932,6	0,005
933	0,006
933,5	0,006
933,9	0,006
934,3	0,006
934,7	0,006
935,2	0,006
935,6	0,006
936	0,005
936,4	0,005
936,8	0,005
937,3	0,005
937,7	0,005
938,1	0,005
938,5	0,005
939	0,005
939,4	0,005
939,8	0,005
940,2	0,005
940,6	0,005
941,1	0,005
941,5	0,005
941,9	0,005
942,3	0,005
942,8	0,005
943,2	0,005
943,6	0,005
944	0,005
944,4	0,005
944,9	0,005
945,3	0,005
945,7	0,005
946,1	0,006
946,6	0,006
947	0,006
947,4	0,006
947,8	0,006
948,2	0,006
948,7	0,007
949,1	0,006
949,5	0,007
949,9	0,007
950,3	0,007
950,8	0,006
951,2	0,006
951,6	0,006
952	0,006
952,5	0,006
952,9	0,005
953,3	0,005
953,7	0,006
954,1	0,006
954,6	0,006
955	0,006
955,4	0,005
955,8	0,005
956,2	0,006
956,7	0,005
957,1	0,005
957,5	0,004
957,9	0,005
958,3	0,005
958,8	0,006
959,2	0,005
959,6	0,006
960	0,005
960,5	0,006
960,9	0,006
961,3	0,006
961,7	0,006
962,1	0,006
962,6	0,007
963	0,007
963,4	0,007
963,8	0,008
964,2	0,007
964,7	0,007
965,1	0,007
965,5	0,007
965,9	0,007
966,3	0,007
966,8	0,006
967,2	0,006
967,6	0,006
968	0,006
968,4	0,006
968,9	0,006
969,3	0,006
969,7	0,006
970,1	0,007
970,5	0,007
971	0,007
971,4	0,006
971,8	0,006
972,2	0,005
972,6	0,005
973,1	0,005
973,5	0,004
973,9	0,004
974,3	0,005
974,7	0,004
975,2	0,004
975,6	0,005
976	0,005
976,4	0,005
976,8	0,006
977,3	0,005
977,7	0,006
978,1	0,006
978,5	0,005
978,9	0,005
979,4	0,005
979,8	0,005
980,2	0,005
980,6	0,005
981	0,005
981,5	0,005
981,9	0,005
982,3	0,005
982,7	0,005
983,1	0,005
983,6	0,005
984	0,005
984,4	0,005
984,8	0,005
985,2	0,005
985,6	0,005
986,1	0,006
986,5	0,007
986,9	0,007
987,3	0,007
987,7	0,007
988,2	0,007
988,6	0,007
989	0,007
989,4	0,006
989,8	0,005
990,3	0,005
990,7	0,005
991,1	0,004
991,5	0,004
991,9	0,004
992,3	0,004
992,8	0,004
993,2	0,004
993,6	0,004
994	0,005
994,4	0,005
994,9	0,005
995,3	0,005
995,7	0,005
996,1	0,006
996,5	0,006
996,9	0,006
997,4	0,006
997,8	0,006
998,2	0,005
998,6	0,005
999	0,005
999,5	0,004
999,9	0,004
1000,3	0,004
1000,7	0,004
1001,1	0,005
1001,5	0,005
1002	0,006
1002,4	0,006
1002,8	0,006
1003,2	0,006
1003,6	0,006
1004	0,005
1004,5	0,006
1004,9	0,005
1005,3	0,005
1005,7	0,004
1006,1	0,005
1006,6	0,005
1007	0,005
1007,4	0,005
1007,8	0,006
1008,2	0,005
1008,6	0,005
1009,1	0,005
1009,5	0,004
1009,9	0,005
1010,3	0,005
1010,7	0,005
1011,1	0,005
1011,6	0,006
1012	0,005
1012,4	0,006
1012,8	0,006
1013,2	0,006
1013,6	0,007
1014,1	0,007
1014,5	0,007
1014,9	0,008
1015,3	0,008
1015,7	0,008
1016,1	0,008
1016,6	0,007
1017	0,007
1017,4	0,006
1017,8	0,006
1018,2	0,005
1018,6	0,005
1019,1	0,005
1019,5	0,005
1019,9	0,005
1020,3	0,004
1020,7	0,004
1021,1	0,004
1021,6	0,004
1022	0,005
1022,4	0,005
1022,8	0,005
1023,2	0,006
1023,6	0,007
1024,1	0,007
1024,5	0,006
1024,9	0,006
1025,3	0,006
1025,7	0,007
1026,1	0,006
1026,6	0,006
1027	0,006
1027,4	0,006
1027,8	0,006
1028,2	0,006
1028,6	0,005
1029	0,005
1029,5	0,006
1029,9	0,006
1030,3	0,006
1030,7	0,006
1031,1	0,007
1031,5	0,007
1032	0,007
1032,4	0,006
1032,8	0,006
1033,2	0,006
1033,6	0,006
1034	0,005
1034,4	0,005
1034,9	0,005
1035,3	0,005
1035,7	0,005
1036,1	0,005
1036,5	0,006
1036,9	0,006
1037,4	0,006
1037,8	0,007
1038,2	0,007
1038,6	0,007
1039	0,008
1039,4	0,007
1039,8	0,007
1040,3	0,007
1040,7	0,007
1041,1	0,006
1041,5	0,006
1041,9	0,006
1042,3	0,007
1042,7	0,007
1043,2	0,007
1043,6	0,006
1044	0,006
1044,4	0,005
1044,8	0,005
1045,2	0,005
1045,6	0,006
1046,1	0,006
1046,5	0,005
1046,9	0,006
1047,3	0,006
1047,7	0,006
1048,1	0,005
1048,5	0,004
1049	0,004
1049,4	0,004
1049,8	0,005
1050,2	0,004
1050,6	0,005
1051	0,007
1051,4	0,007
1051,9	0,007
1052,3	0,007
1052,7	0,007
1053,1	0,008
1053,5	0,008
1053,9	0,007
1054,3	0,007
1054,8	0,007
1055,2	0,007
1055,6	0,007
1056	0,007
1056,4	0,007
1056,8	0,006
1057,2	0,007
1057,6	0,007
1058,1	0,007
1058,5	0,007
1058,9	0,007
1059,3	0,007
1059,7	0,007
1060,1	0,006
1060,5	0,006
1061	0,006
1061,4	0,005
1061,8	0,005
1062,2	0,004
1062,6	0,005
1063	0,006
1063,4	0,005
1063,8	0,005
1064,3	0,006
1064,7	0,005
1065,1	0,005
1065,5	0,005
1065,9	0,004
1066,3	0,005
1066,7	0,005
1067,1	0,004
1067,6	0,006
1068	0,006
1068,4	0,006
1068,8	0,007
1069,2	0,007
1069,6	0,008
1070	0,008
1070,4	0,008
1070,9	0,009
1071,3	0,008
1071,7	0,009
1072,1	0,007
1072,5	0,007
1072,9	0,006
1073,3	0,007
1073,7	0,007
1074,2	0,009
1074,6	0,008
1075	0,009
1075,4	0,008
1075,8	0,008
1076,2	0,008
1076,6	0,007
1077	0,006
1077,5	0,005
1077,9	0,006
1078,3	0,007
1078,7	0,007
1079,1	0,009
1079,5	0,008
1079,9	0,009
1080,3	0,01
1080,7	0,01
1081,2	0,009
1081,6	0,009
1082	0,007
1082,4	0,008
1082,8	0,007
1083,2	0,008
1083,6	0,007
1084	0,007
1084,5	0,007
1084,9	0,01
1085,3	0,01
1085,7	0,01
1086,1	0,01
1086,5	0,011
1086,9	0,01
1087,3	0,011
1087,7	0,009
1088,2	0,008
1088,6	0,01
1089	0,01
1089,4	0,011
1089,8	0,012
1090,2	0,012
1090,6	0,014
1091	0,015
1091,4	0,013
1091,9	0,011
1092,3	0,014
1092,7	0,015
1093,1	0,014
1093,5	0,008
1093,9	0,007
1094,3	0,004
1094,7	0,005
1095,1	0,004
1095,5	0,002
1096	0,003
1096,4	0,005
1096,8	0,005
1097,2	0,014
1097,6	0,017
1098	0,013
1098,4	0,013
1098,8	0,018
1099,2	0,021
1099,6	0,028
1100,1	0,03
1100,5	0,028
1100,9	0,035
1101,3	0,044
1101,7	0,04
1102,1	0,04
1102,5	0,036
1102,9	0,027
1103,3	0,027
1103,7	0,027
1104,2	0,021
1104,6	0,032
1105	0,029
1105,4	0,029
1105,8	0,045
1106,2	0,052
1106,6	0,055
1107	0,054
1107,4	0,042
1107,8	0,061
1108,3	-0
