Data from Absorbance_154.txt Node
Date: Fri Nov 13 20:01:20 MSK 2020
User: vat
Spectrometer: MAYP114033
Trigger mode: 0
Integration Time (sec): 8,000000E-3
Scans to average: 10
Electric dark correction enabled: true
Nonlinearity correction enabled: false
Boxcar width: 3
XAxis mode: Wavelengths
Number of Pixels in Spectrum: 2068
>>>>>Begin Spectral Data<<<<<
199,4	-0
199,9	0,71
200,4	0,303
200,8	0,165
201,3	0,115
201,8	0,092
202,2	0,096
202,7	0,087
203,2	0,068
203,6	0,067
204,1	0,077
204,6	0,068
205	0,063
205,5	0,059
206	0,061
206,4	0,056
206,9	0,062
207,4	0,059
207,8	0,051
208,3	0,05
208,8	0,047
209,2	0,051
209,7	0,047
210,2	0,028
210,6	0,017
211,1	0,033
211,5	0,037
212	0,033
212,5	0,032
212,9	0,055
213,4	0,059
213,9	0,072
214,3	0,084
214,8	0,08
215,3	0,091
215,7	0,087
216,2	0,071
216,7	0,071
217,1	0,06
217,6	0,043
218,1	0,034
218,5	0,026
219	0,015
219,5	0,031
219,9	0,038
220,4	0,043
220,9	0,056
221,3	0,058
221,8	0,059
222,3	0,073
222,7	0,073
223,2	0,082
223,6	0,081
224,1	0,083
224,6	0,094
225	0,113
225,5	0,112
226	0,113
226,4	0,103
226,9	0,098
227,4	0,076
227,8	0,074
228,3	0,069
228,8	0,091
229,2	0,08
229,7	0,083
230,2	0,088
230,6	0,096
231,1	0,092
231,5	0,087
232	0,079
232,5	0,091
232,9	0,09
233,4	0,101
233,9	0,11
234,3	0,124
234,8	0,117
235,3	0,106
235,7	0,11
236,2	0,122
236,7	0,121
237,1	0,124
237,6	0,115
238,1	0,115
238,5	0,123
239	0,122
239,4	0,119
239,9	0,126
240,4	0,122
240,8	0,127
241,3	0,15
241,8	0,155
242,2	0,155
242,7	0,166
243,2	0,158
243,6	0,166
244,1	0,175
244,6	0,167
245	0,16
245,5	0,166
245,9	0,166
246,4	0,176
246,9	0,177
247,3	0,175
247,8	0,182
248,3	0,189
248,7	0,199
249,2	0,201
249,7	0,206
250,1	0,213
250,6	0,215
251	0,213
251,5	0,218
252	0,215
252,4	0,218
252,9	0,219
253,4	0,221
253,8	0,225
254,3	0,23
254,8	0,233
255,2	0,237
255,7	0,243
256,1	0,248
256,6	0,252
257,1	0,257
257,5	0,263
258	0,27
258,5	0,277
258,9	0,284
259,4	0,291
259,9	0,299
260,3	0,307
260,8	0,316
261,2	0,323
261,7	0,331
262,2	0,34
262,6	0,349
263,1	0,359
263,6	0,368
264	0,376
264,5	0,386
264,9	0,396
265,4	0,405
265,9	0,412
266,3	0,422
266,8	0,431
267,3	0,44
267,7	0,449
268,2	0,458
268,7	0,467
269,1	0,479
269,6	0,489
270	0,499
270,5	0,509
271	0,518
271,4	0,527
271,9	0,536
272,4	0,545
272,8	0,553
273,3	0,561
273,7	0,57
274,2	0,579
274,7	0,587
275,1	0,594
275,6	0,601
276,1	0,608
276,5	0,615
277	0,62
277,4	0,626
277,9	0,632
278,4	0,637
278,8	0,642
279,3	0,646
279,8	0,649
280,2	0,654
280,7	0,656
281,1	0,658
281,6	0,66
282,1	0,661
282,5	0,662
283	0,662
283,4	0,661
283,9	0,66
284,4	0,657
284,8	0,654
285,3	0,651
285,8	0,647
286,2	0,643
286,7	0,638
287,1	0,633
287,6	0,628
288,1	0,622
288,5	0,616
289	0,608
289,5	0,601
289,9	0,591
290,4	0,582
290,8	0,572
291,3	0,562
291,8	0,551
292,2	0,54
292,7	0,528
293,1	0,515
293,6	0,503
294,1	0,49
294,5	0,478
295	0,464
295,5	0,452
295,9	0,439
296,4	0,427
296,8	0,413
297,3	0,4
297,8	0,387
298,2	0,374
298,7	0,36
299,1	0,347
299,6	0,334
300,1	0,322
300,5	0,309
301	0,296
301,5	0,285
301,9	0,273
302,4	0,261
302,8	0,249
303,3	0,238
303,8	0,227
304,2	0,217
304,7	0,207
305,1	0,197
305,6	0,189
306,1	0,18
306,5	0,171
307	0,163
307,4	0,156
307,9	0,149
308,4	0,142
308,8	0,135
309,3	0,129
309,8	0,123
310,2	0,118
310,7	0,113
311,1	0,108
311,6	0,103
312,1	0,098
312,5	0,094
313	0,09
313,4	0,086
313,9	0,082
314,4	0,079
314,8	0,075
315,3	0,073
315,7	0,07
316,2	0,067
316,7	0,065
317,1	0,063
317,6	0,06
318	0,058
318,5	0,056
319	0,055
319,4	0,053
319,9	0,052
320,3	0,05
320,8	0,049
321,3	0,048
321,7	0,046
322,2	0,045
322,6	0,044
323,1	0,044
323,6	0,043
324	0,042
324,5	0,041
324,9	0,041
325,4	0,041
325,9	0,04
326,3	0,039
326,8	0,039
327,2	0,038
327,7	0,038
328,2	0,038
328,6	0,037
329,1	0,037
329,5	0,036
330	0,036
330,5	0,035
330,9	0,036
331,4	0,035
331,8	0,035
332,3	0,035
332,8	0,035
333,2	0,035
333,7	0,035
334,1	0,034
334,6	0,034
335,1	0,034
335,5	0,033
336	0,033
336,4	0,033
336,9	0,033
337,4	0,033
337,8	0,033
338,3	0,033
338,7	0,033
339,2	0,033
339,7	0,033
340,1	0,033
340,6	0,032
341	0,032
341,5	0,032
342	0,032
342,4	0,031
342,9	0,031
343,3	0,031
343,8	0,031
344,2	0,031
344,7	0,031
345,2	0,031
345,6	0,031
346,1	0,031
346,5	0,031
347	0,032
347,5	0,031
347,9	0,032
348,4	0,031
348,8	0,031
349,3	0,031
349,8	0,03
350,2	0,03
350,7	0,03
351,1	0,029
351,6	0,029
352	0,029
352,5	0,029
353	0,029
353,4	0,029
353,9	0,029
354,3	0,029
354,8	0,028
355,3	0,029
355,7	0,028
356,2	0,028
356,6	0,028
357,1	0,028
357,5	0,029
358	0,029
358,5	0,029
358,9	0,029
359,4	0,028
359,8	0,028
360,3	0,028
360,8	0,028
361,2	0,028
361,7	0,028
362,1	0,028
362,6	0,028
363	0,028
363,5	0,028
364	0,027
364,4	0,027
364,9	0,027
365,3	0,027
365,8	0,027
366,3	0,027
366,7	0,027
367,2	0,027
367,6	0,027
368,1	0,027
368,5	0,027
369	0,026
369,5	0,026
369,9	0,026
370,4	0,026
370,8	0,026
371,3	0,026
371,7	0,026
372,2	0,026
372,7	0,026
373,1	0,025
373,6	0,025
374	0,025
374,5	0,025
374,9	0,026
375,4	0,026
375,9	0,026
376,3	0,025
376,8	0,025
377,2	0,025
377,7	0,025
378,2	0,024
378,6	0,024
379,1	0,023
379,5	0,023
380	0,023
380,4	0,023
380,9	0,023
381,4	0,023
381,8	0,022
382,3	0,022
382,7	0,023
383,2	0,023
383,6	0,023
384,1	0,023
384,6	0,023
385	0,023
385,5	0,023
385,9	0,023
386,4	0,023
386,8	0,023
387,3	0,023
387,7	0,024
388,2	0,023
388,7	0,024
389,1	0,024
389,6	0,024
390	0,023
390,5	0,023
390,9	0,023
391,4	0,023
391,9	0,023
392,3	0,023
392,8	0,023
393,2	0,023
393,7	0,022
394,1	0,022
394,6	0,022
395,1	0,022
395,5	0,021
396	0,022
396,4	0,021
396,9	0,021
397,3	0,021
397,8	0,021
398,2	0,021
398,7	0,02
399,2	0,02
399,6	0,02
400,1	0,02
400,5	0,021
401	0,021
401,4	0,021
401,9	0,021
402,4	0,02
402,8	0,02
403,3	0,021
403,7	0,02
404,2	0,019
404,6	0,02
405,1	0,02
405,5	0,02
406	0,02
406,5	0,02
406,9	0,02
407,4	0,02
407,8	0,02
408,3	0,019
408,7	0,02
409,2	0,02
409,6	0,02
410,1	0,019
410,6	0,019
411	0,019
411,5	0,019
411,9	0,019
412,4	0,019
412,8	0,019
413,3	0,019
413,7	0,019
414,2	0,019
414,7	0,02
415,1	0,02
415,6	0,02
416	0,02
416,5	0,02
416,9	0,02
417,4	0,02
417,8	0,02
418,3	0,02
418,8	0,019
419,2	0,019
419,7	0,019
420,1	0,019
420,6	0,019
421	0,02
421,5	0,019
421,9	0,019
422,4	0,019
422,8	0,019
423,3	0,019
423,8	0,019
424,2	0,019
424,7	0,019
425,1	0,019
425,6	0,019
426	0,018
426,5	0,018
426,9	0,018
427,4	0,019
427,9	0,018
428,3	0,018
428,8	0,018
429,2	0,018
429,7	0,018
430,1	0,018
430,6	0,017
431	0,017
431,5	0,018
431,9	0,018
432,4	0,018
432,8	0,018
433,3	0,018
433,8	0,018
434,2	0,019
434,7	0,018
435,1	0,018
435,6	0,018
436	0,017
436,5	0,017
436,9	0,016
437,4	0,016
437,8	0,016
438,3	0,016
438,8	0,017
439,2	0,017
439,7	0,017
440,1	0,018
440,6	0,018
441	0,018
441,5	0,018
441,9	0,018
442,4	0,018
442,8	0,018
443,3	0,018
443,7	0,018
444,2	0,017
444,7	0,018
445,1	0,017
445,6	0,018
446	0,018
446,5	0,018
446,9	0,017
447,4	0,018
447,8	0,017
448,3	0,017
448,7	0,017
449,2	0,016
449,6	0,016
450,1	0,017
450,6	0,017
451	0,017
451,5	0,017
451,9	0,017
452,4	0,017
452,8	0,017
453,3	0,017
453,7	0,017
454,2	0,017
454,6	0,017
455,1	0,017
455,5	0,017
456	0,017
456,4	0,018
456,9	0,017
457,3	0,017
457,8	0,017
458,3	0,016
458,7	0,016
459,2	0,016
459,6	0,016
460,1	0,016
460,5	0,017
461	0,017
461,4	0,017
461,9	0,016
462,3	0,016
462,8	0,016
463,2	0,016
463,7	0,016
464,1	0,016
464,6	0,016
465	0,016
465,5	0,016
466	0,016
466,4	0,016
466,9	0,016
467,3	0,016
467,8	0,016
468,2	0,015
468,7	0,016
469,1	0,016
469,6	0,016
470	0,015
470,5	0,016
470,9	0,016
471,4	0,016
471,8	0,017
472,3	0,017
472,7	0,017
473,2	0,017
473,6	0,017
474,1	0,017
474,5	0,017
475	0,016
475,4	0,016
475,9	0,016
476,4	0,015
476,8	0,015
477,3	0,015
477,7	0,015
478,2	0,015
478,6	0,015
479,1	0,016
479,5	0,016
480	0,016
480,4	0,015
480,9	0,016
481,3	0,015
481,8	0,015
482,2	0,015
482,7	0,015
483,1	0,015
483,6	0,016
484	0,015
484,5	0,015
484,9	0,015
485,4	0,015
485,8	0,015
486,3	0,015
486,7	0,015
487,2	0,014
487,6	0,015
488,1	0,014
488,5	0,015
489	0,015
489,4	0,014
489,9	0,014
490,4	0,014
490,8	0,015
491,3	0,014
491,7	0,014
492,2	0,014
492,6	0,015
493,1	0,015
493,5	0,015
494	0,015
494,4	0,015
494,9	0,015
495,3	0,014
495,8	0,014
496,2	0,014
496,7	0,014
497,1	0,014
497,6	0,015
498	0,014
498,5	0,015
498,9	0,014
499,4	0,014
499,8	0,014
500,3	0,013
500,7	0,013
501,2	0,013
501,6	0,014
502,1	0,014
502,5	0,014
503	0,014
503,4	0,015
503,9	0,014
504,3	0,014
504,8	0,014
505,2	0,014
505,7	0,014
506,1	0,014
506,6	0,014
507	0,014
507,5	0,014
507,9	0,013
508,4	0,013
508,8	0,013
509,3	0,013
509,7	0,013
510,2	0,013
510,6	0,013
511,1	0,014
511,5	0,014
512	0,013
512,4	0,013
512,9	0,013
513,3	0,013
513,8	0,013
514,2	0,013
514,7	0,014
515,1	0,014
515,6	0,014
516	0,014
516,5	0,014
516,9	0,013
517,4	0,013
517,8	0,013
518,3	0,013
518,7	0,013
519,2	0,012
519,6	0,013
520,1	0,013
520,5	0,013
521	0,013
521,4	0,013
521,9	0,013
522,3	0,014
522,8	0,013
523,2	0,013
523,7	0,014
524,1	0,013
524,6	0,013
525	0,013
525,5	0,012
525,9	0,013
526,4	0,013
526,8	0,013
527,3	0,013
527,7	0,013
528,2	0,013
528,6	0,013
529,1	0,012
529,5	0,012
530	0,012
530,4	0,012
530,9	0,011
531,3	0,012
531,8	0,012
532,2	0,012
532,6	0,012
533,1	0,012
533,5	0,012
534	0,012
534,4	0,012
534,9	0,012
535,3	0,012
535,8	0,012
536,2	0,012
536,7	0,013
537,1	0,013
537,6	0,013
538	0,013
538,5	0,013
538,9	0,013
539,4	0,012
539,8	0,012
540,3	0,012
540,7	0,012
541,2	0,012
541,6	0,012
542,1	0,011
542,5	0,011
543	0,011
543,4	0,011
543,9	0,011
544,3	0,011
544,8	0,01
545,2	0,011
545,7	0,011
546,1	0,01
546,5	0,011
547	0,011
547,4	0,011
547,9	0,011
548,3	0,011
548,8	0,011
549,2	0,011
549,7	0,012
550,1	0,011
550,6	0,011
551	0,012
551,5	0,012
551,9	0,012
552,4	0,012
552,8	0,011
553,3	0,011
553,7	0,011
554,2	0,011
554,6	0,011
555,1	0,011
555,5	0,011
555,9	0,011
556,4	0,011
556,8	0,011
557,3	0,012
557,7	0,011
558,2	0,011
558,6	0,011
559,1	0,011
559,5	0,011
560	0,011
560,4	0,011
560,9	0,01
561,3	0,01
561,8	0,01
562,2	0,01
562,7	0,01
563,1	0,01
563,6	0,01
564	0,01
564,4	0,01
564,9	0,01
565,3	0,011
565,8	0,01
566,2	0,01
566,7	0,01
567,1	0,01
567,6	0,01
568	0,01
568,5	0,01
568,9	0,01
569,4	0,01
569,8	0,01
570,3	0,01
570,7	0,01
571,1	0,01
571,6	0,01
572	0,01
572,5	0,01
572,9	0,011
573,4	0,011
573,8	0,011
574,3	0,01
574,7	0,01
575,2	0,01
575,6	0,01
576,1	0,01
576,5	0,01
576,9	0,01
577,4	0,01
577,8	0,01
578,3	0,01
578,7	0,01
579,2	0,01
579,6	0,01
580,1	0,01
580,5	0,01
581	0,01
581,4	0,01
581,9	0,01
582,3	0,01
582,7	0,01
583,2	0,009
583,6	0,01
584,1	0,01
584,5	0,01
585	0,01
585,4	0,01
585,9	0,01
586,3	0,01
586,8	0,01
587,2	0,01
587,6	0,01
588,1	0,01
588,5	0,01
589	0,009
589,4	0,01
589,9	0,009
590,3	0,01
590,8	0,01
591,2	0,01
591,7	0,01
592,1	0,01
592,5	0,01
593	0,01
593,4	0,01
593,9	0,009
594,3	0,009
594,8	0,009
595,2	0,009
595,7	0,009
596,1	0,009
596,6	0,009
597	0,009
597,4	0,009
597,9	0,009
598,3	0,009
598,8	0,009
599,2	0,009
599,7	0,009
600,1	0,009
600,6	0,009
601	0,009
601,4	0,009
601,9	0,009
602,3	0,009
602,8	0,009
603,2	0,009
603,7	0,009
604,1	0,009
604,6	0,009
605	0,008
605,4	0,008
605,9	0,008
606,3	0,008
606,8	0,008
607,2	0,008
607,7	0,008
608,1	0,008
608,6	0,008
609	0,008
609,4	0,008
609,9	0,008
610,3	0,008
610,8	0,008
611,2	0,008
611,7	0,008
612,1	0,008
612,6	0,008
613	0,008
613,4	0,008
613,9	0,008
614,3	0,008
614,8	0,008
615,2	0,008
615,7	0,008
616,1	0,008
616,6	0,009
617	0,009
617,4	0,009
617,9	0,009
618,3	0,009
618,8	0,009
619,2	0,009
619,7	0,009
620,1	0,008
620,5	0,008
621	0,008
621,4	0,009
621,9	0,008
622,3	0,008
622,8	0,008
623,2	0,008
623,6	0,008
624,1	0,008
624,5	0,007
625	0,007
625,4	0,007
625,9	0,007
626,3	0,007
626,8	0,007
627,2	0,008
627,6	0,008
628,1	0,008
628,5	0,008
629	0,008
629,4	0,008
629,9	0,008
630,3	0,008
630,7	0,008
631,2	0,008
631,6	0,008
632,1	0,008
632,5	0,008
633	0,007
633,4	0,008
633,8	0,008
634,3	0,008
634,7	0,008
635,2	0,008
635,6	0,008
636,1	0,008
636,5	0,008
636,9	0,008
637,4	0,008
637,8	0,007
638,3	0,007
638,7	0,008
639,2	0,008
639,6	0,007
640	0,008
640,5	0,008
640,9	0,008
641,4	0,008
641,8	0,008
642,2	0,008
642,7	0,008
643,1	0,008
643,6	0,007
644	0,007
644,5	0,007
644,9	0,007
645,3	0,007
645,8	0,007
646,2	0,007
646,7	0,008
647,1	0,008
647,6	0,008
648	0,008
648,4	0,008
648,9	0,008
649,3	0,008
649,8	0,007
650,2	0,008
650,6	0,007
651,1	0,007
651,5	0,007
652	0,007
652,4	0,007
652,9	0,007
653,3	0,008
653,7	0,009
654,2	0,006
654,6	0,005
655,1	0,003
655,5	0,003
655,9	0,003
656,4	0,003
656,8	0,002
657,3	0,002
657,7	0,003
658,2	0,005
658,6	0,006
659	0,006
659,5	0,007
659,9	0,007
660,4	0,006
660,8	0,007
661,2	0,007
661,7	0,007
662,1	0,006
662,6	0,006
663	0,006
663,4	0,006
663,9	0,006
664,3	0,006
664,8	0,006
665,2	0,006
665,6	0,007
666,1	0,007
666,5	0,007
667	0,007
667,4	0,007
667,9	0,007
668,3	0,007
668,7	0,007
669,2	0,007
669,6	0,007
670,1	0,007
670,5	0,007
670,9	0,007
671,4	0,007
671,8	0,008
672,3	0,007
672,7	0,007
673,1	0,007
673,6	0,007
674	0,007
674,5	0,007
674,9	0,007
675,3	0,007
675,8	0,007
676,2	0,007
676,7	0,007
677,1	0,007
677,5	0,007
678	0,007
678,4	0,007
678,9	0,007
679,3	0,006
679,7	0,006
680,2	0,006
680,6	0,006
681,1	0,006
681,5	0,006
681,9	0,006
682,4	0,006
682,8	0,007
683,3	0,007
683,7	0,007
684,1	0,007
684,6	0,007
685	0,007
685,5	0,007
685,9	0,007
686,3	0,007
686,8	0,007
687,2	0,006
687,7	0,007
688,1	0,006
688,5	0,006
689	0,006
689,4	0,007
689,9	0,007
690,3	0,007
690,7	0,007
691,2	0,007
691,6	0,007
692	0,007
692,5	0,006
692,9	0,006
693,4	0,006
693,8	0,006
694,2	0,006
694,7	0,006
695,1	0,007
695,6	0,007
696	0,007
696,4	0,007
696,9	0,007
697,3	0,007
697,8	0,007
698,2	0,007
698,6	0,007
699,1	0,007
699,5	0,006
699,9	0,006
700,4	0,006
700,8	0,006
701,3	0,006
701,7	0,006
702,1	0,006
702,6	0,006
703	0,006
703,5	0,006
703,9	0,006
704,3	0,006
704,8	0,006
705,2	0,007
705,6	0,007
706,1	0,007
706,5	0,006
707	0,007
707,4	0,006
707,8	0,006
708,3	0,006
708,7	0,006
709,2	0,006
709,6	0,006
710	0,006
710,5	0,007
710,9	0,007
711,3	0,007
711,8	0,006
712,2	0,006
712,7	0,006
713,1	0,006
713,5	0,006
714	0,006
714,4	0,006
714,8	0,006
715,3	0,006
715,7	0,006
716,2	0,006
716,6	0,006
717	0,006
717,5	0,006
717,9	0,006
718,3	0,006
718,8	0,006
719,2	0,007
719,7	0,007
720,1	0,007
720,5	0,007
721	0,007
721,4	0,007
721,8	0,007
722,3	0,007
722,7	0,006
723,2	0,007
723,6	0,006
724	0,007
724,5	0,007
724,9	0,007
725,3	0,007
725,8	0,006
726,2	0,006
726,7	0,006
727,1	0,006
727,5	0,007
728	0,006
728,4	0,006
728,8	0,007
729,3	0,007
729,7	0,007
730,1	0,007
730,6	0,007
731	0,007
731,5	0,007
731,9	0,007
732,3	0,007
732,8	0,007
733,2	0,007
733,6	0,007
734,1	0,006
734,5	0,006
734,9	0,006
735,4	0,006
735,8	0,006
736,3	0,007
736,7	0,007
737,1	0,007
737,6	0,007
738	0,008
738,4	0,007
738,9	0,007
739,3	0,007
739,7	0,007
740,2	0,006
740,6	0,006
741,1	0,006
741,5	0,006
741,9	0,006
742,4	0,006
742,8	0,006
743,2	0,006
743,7	0,006
744,1	0,006
744,5	0,006
745	0,006
745,4	0,006
745,8	0,006
746,3	0,006
746,7	0,006
747,2	0,006
747,6	0,006
748	0,006
748,5	0,006
748,9	0,006
749,3	0,006
749,8	0,006
750,2	0,006
750,6	0,006
751,1	0,006
751,5	0,006
751,9	0,006
752,4	0,007
752,8	0,007
753,3	0,007
753,7	0,007
754,1	0,006
754,6	0,007
755	0,006
755,4	0,006
755,9	0,006
756,3	0,006
756,7	0,006
757,2	0,006
757,6	0,006
758	0,006
758,5	0,006
758,9	0,006
759,3	0,006
759,8	0,006
760,2	0,006
760,6	0,006
761,1	0,005
761,5	0,006
761,9	0,005
762,4	0,006
762,8	0,006
763,3	0,006
763,7	0,006
764,1	0,006
764,6	0,006
765	0,006
765,4	0,006
765,9	0,006
766,3	0,007
766,7	0,007
767,2	0,007
767,6	0,007
768	0,007
768,5	0,007
768,9	0,007
769,3	0,007
769,8	0,007
770,2	0,006
770,6	0,006
771,1	0,006
771,5	0,006
771,9	0,005
772,4	0,006
772,8	0,005
773,2	0,006
773,7	0,006
774,1	0,006
774,5	0,006
775	0,005
775,4	0,005
775,8	0,005
776,3	0,005
776,7	0,005
777,1	0,005
777,6	0,005
778	0,005
778,4	0,006
778,9	0,006
779,3	0,006
779,7	0,006
780,2	0,006
780,6	0,006
781	0,006
781,5	0,006
781,9	0,005
782,3	0,005
782,8	0,005
783,2	0,006
783,6	0,005
784,1	0,005
784,5	0,005
784,9	0,004
785,4	0,004
785,8	0,004
786,2	0,004
786,7	0,005
787,1	0,005
787,5	0,005
788	0,006
788,4	0,006
788,8	0,006
789,3	0,006
789,7	0,007
790,1	0,007
790,6	0,006
791	0,007
791,4	0,007
791,9	0,007
792,3	0,007
792,7	0,007
793,2	0,007
793,6	0,007
794	0,007
794,5	0,007
794,9	0,007
795,3	0,007
795,8	0,007
796,2	0,007
796,6	0,007
797,1	0,007
797,5	0,007
797,9	0,007
798,4	0,006
798,8	0,006
799,2	0,006
799,7	0,006
800,1	0,005
800,5	0,005
801	0,006
801,4	0,006
801,8	0,006
802,2	0,006
802,7	0,006
803,1	0,006
803,5	0,006
804	0,006
804,4	0,006
804,8	0,006
805,3	0,006
805,7	0,006
806,1	0,006
806,6	0,006
807	0,006
807,4	0,006
807,9	0,006
808,3	0,006
808,7	0,006
809,2	0,006
809,6	0,006
810	0,006
810,4	0,006
810,9	0,006
811,3	0,006
811,7	0,006
812,2	0,006
812,6	0,006
813	0,005
813,5	0,005
813,9	0,005
814,3	0,005
814,8	0,005
815,2	0,005
815,6	0,005
816,1	0,005
816,5	0,005
816,9	0,005
817,3	0,005
817,8	0,005
818,2	0,005
818,6	0,006
819,1	0,006
819,5	0,006
819,9	0,005
820,4	0,005
820,8	0,005
821,2	0,005
821,7	0,005
822,1	0,004
822,5	0,004
822,9	0,004
823,4	0,005
823,8	0,005
824,2	0,005
824,7	0,005
825,1	0,006
825,5	0,006
826	0,006
826,4	0,006
826,8	0,005
827,3	0,005
827,7	0,006
828,1	0,005
828,5	0,005
829	0,005
829,4	0,005
829,8	0,005
830,3	0,005
830,7	0,005
831,1	0,005
831,6	0,005
832	0,005
832,4	0,005
832,8	0,005
833,3	0,005
833,7	0,006
834,1	0,006
834,6	0,006
835	0,006
835,4	0,005
835,8	0,005
836,3	0,005
836,7	0,005
837,1	0,004
837,6	0,004
838	0,004
838,4	0,004
838,9	0,004
839,3	0,004
839,7	0,004
840,1	0,005
840,6	0,005
841	0,005
841,4	0,005
841,9	0,005
842,3	0,005
842,7	0,005
843,1	0,005
843,6	0,005
844	0,006
844,4	0,006
844,9	0,006
845,3	0,006
845,7	0,006
846,2	0,006
846,6	0,005
847	0,005
847,4	0,005
847,9	0,004
848,3	0,004
848,7	0,004
849,2	0,004
849,6	0,004
850	0,004
850,4	0,005
850,9	0,005
851,3	0,005
851,7	0,005
852,2	0,006
852,6	0,006
853	0,006
853,4	0,006
853,9	0,006
854,3	0,006
854,7	0,006
855,2	0,006
855,6	0,006
856	0,006
856,4	0,006
856,9	0,006
857,3	0,006
857,7	0,007
858,2	0,007
858,6	0,007
859	0,007
859,4	0,007
859,9	0,006
860,3	0,007
860,7	0,006
861,1	0,006
861,6	0,006
862	0,005
862,4	0,005
862,9	0,005
863,3	0,005
863,7	0,005
864,1	0,006
864,6	0,006
865	0,006
865,4	0,006
865,9	0,006
866,3	0,006
866,7	0,006
867,1	0,005
867,6	0,005
868	0,005
868,4	0,005
868,8	0,006
869,3	0,006
869,7	0,006
870,1	0,006
870,6	0,006
871	0,006
871,4	0,006
871,8	0,006
872,3	0,006
872,7	0,006
873,1	0,005
873,5	0,005
874	0,005
874,4	0,005
874,8	0,005
875,3	0,005
875,7	0,005
876,1	0,005
876,5	0,005
877	0,006
877,4	0,006
877,8	0,006
878,2	0,006
878,7	0,006
879,1	0,005
879,5	0,005
879,9	0,005
880,4	0,005
880,8	0,005
881,2	0,005
881,7	0,005
882,1	0,006
882,5	0,006
882,9	0,006
883,4	0,006
883,8	0,006
884,2	0,006
884,6	0,006
885,1	0,006
885,5	0,005
885,9	0,005
886,3	0,005
886,8	0,005
887,2	0,005
887,6	0,005
888	0,006
888,5	0,006
888,9	0,006
889,3	0,006
889,8	0,007
890,2	0,007
890,6	0,006
891	0,006
891,5	0,006
891,9	0,006
892,3	0,006
892,7	0,005
893,2	0,005
893,6	0,005
894	0,005
894,4	0,005
894,9	0,005
895,3	0,005
895,7	0,006
896,1	0,006
896,6	0,006
897	0,006
897,4	0,006
897,8	0,006
898,3	0,006
898,7	0,006
899,1	0,006
899,5	0,006
900	0,006
900,4	0,006
900,8	0,006
901,2	0,006
901,7	0,006
902,1	0,006
902,5	0,006
902,9	0,006
903,4	0,006
903,8	0,006
904,2	0,006
904,6	0,006
905,1	0,006
905,5	0,006
905,9	0,006
906,3	0,006
906,8	0,006
907,2	0,006
907,6	0,006
908	0,006
908,5	0,006
908,9	0,006
909,3	0,006
909,7	0,006
910,2	0,006
910,6	0,006
911	0,006
911,4	0,006
911,9	0,006
912,3	0,006
912,7	0,006
913,1	0,006
913,6	0,006
914	0,006
914,4	0,005
914,8	0,005
915,3	0,005
915,7	0,005
916,1	0,005
916,5	0,005
916,9	0,005
917,4	0,005
917,8	0,005
918,2	0,005
918,6	0,005
919,1	0,005
919,5	0,005
919,9	0,005
920,3	0,005
920,8	0,005
921,2	0,005
921,6	0,005
922	0,006
922,5	0,005
922,9	0,006
923,3	0,006
923,7	0,005
924,2	0,005
924,6	0,005
925	0,005
925,4	0,005
925,8	0,005
926,3	0,005
926,7	0,005
927,1	0,005
927,5	0,005
928	0,006
928,4	0,006
928,8	0,006
929,2	0,005
929,7	0,006
930,1	0,006
930,5	0,006
930,9	0,006
931,3	0,006
931,8	0,006
932,2	0,006
932,6	0,005
933	0,006
933,5	0,005
933,9	0,005
934,3	0,005
934,7	0,005
935,2	0,005
935,6	0,005
936	0,005
936,4	0,005
936,8	0,005
937,3	0,005
937,7	0,005
938,1	0,005
938,5	0,005
939	0,005
939,4	0,005
939,8	0,005
940,2	0,005
940,6	0,005
941,1	0,005
941,5	0,005
941,9	0,006
942,3	0,006
942,8	0,005
943,2	0,005
943,6	0,005
944	0,004
944,4	0,004
944,9	0,004
945,3	0,004
945,7	0,005
946,1	0,005
946,6	0,005
947	0,005
947,4	0,005
947,8	0,005
948,2	0,005
948,7	0,006
949,1	0,006
949,5	0,006
949,9	0,006
950,3	0,006
950,8	0,006
951,2	0,006
951,6	0,006
952	0,005
952,5	0,006
952,9	0,006
953,3	0,006
953,7	0,006
954,1	0,006
954,6	0,006
955	0,006
955,4	0,005
955,8	0,005
956,2	0,005
956,7	0,004
957,1	0,005
957,5	0,004
957,9	0,004
958,3	0,004
958,8	0,005
959,2	0,005
959,6	0,005
960	0,005
960,5	0,005
960,9	0,005
961,3	0,005
961,7	0,005
962,1	0,005
962,6	0,005
963	0,005
963,4	0,005
963,8	0,006
964,2	0,006
964,7	0,007
965,1	0,007
965,5	0,007
965,9	0,007
966,3	0,007
966,8	0,007
967,2	0,007
967,6	0,006
968	0,006
968,4	0,006
968,9	0,006
969,3	0,006
969,7	0,007
970,1	0,007
970,5	0,007
971	0,007
971,4	0,006
971,8	0,006
972,2	0,005
972,6	0,005
973,1	0,005
973,5	0,005
973,9	0,005
974,3	0,005
974,7	0,005
975,2	0,005
975,6	0,005
976	0,005
976,4	0,004
976,8	0,005
977,3	0,005
977,7	0,005
978,1	0,005
978,5	0,005
978,9	0,005
979,4	0,005
979,8	0,005
980,2	0,005
980,6	0,005
981	0,005
981,5	0,005
981,9	0,005
982,3	0,005
982,7	0,005
983,1	0,004
983,6	0,005
984	0,005
984,4	0,006
984,8	0,006
985,2	0,007
985,6	0,007
986,1	0,007
986,5	0,007
986,9	0,007
987,3	0,008
987,7	0,008
988,2	0,008
988,6	0,008
989	0,007
989,4	0,007
989,8	0,006
990,3	0,006
990,7	0,005
991,1	0,005
991,5	0,005
991,9	0,006
992,3	0,006
992,8	0,005
993,2	0,005
993,6	0,005
994	0,005
994,4	0,005
994,9	0,005
995,3	0,005
995,7	0,005
996,1	0,006
996,5	0,006
996,9	0,006
997,4	0,006
997,8	0,005
998,2	0,005
998,6	0,005
999	0,004
999,5	0,004
999,9	0,004
1000,3	0,005
1000,7	0,005
1001,1	0,006
1001,5	0,006
1002	0,006
1002,4	0,006
1002,8	0,006
1003,2	0,006
1003,6	0,006
1004	0,006
1004,5	0,006
1004,9	0,006
1005,3	0,006
1005,7	0,006
1006,1	0,006
1006,6	0,006
1007	0,005
1007,4	0,005
1007,8	0,005
1008,2	0,005
1008,6	0,005
1009,1	0,005
1009,5	0,005
1009,9	0,005
1010,3	0,005
1010,7	0,005
1011,1	0,006
1011,6	0,006
1012	0,006
1012,4	0,006
1012,8	0,006
1013,2	0,006
1013,6	0,006
1014,1	0,006
1014,5	0,006
1014,9	0,006
1015,3	0,006
1015,7	0,006
1016,1	0,007
1016,6	0,006
1017	0,006
1017,4	0,007
1017,8	0,006
1018,2	0,006
1018,6	0,006
1019,1	0,005
1019,5	0,005
1019,9	0,005
1020,3	0,005
1020,7	0,005
1021,1	0,006
1021,6	0,006
1022	0,005
1022,4	0,006
1022,8	0,006
1023,2	0,007
1023,6	0,008
1024,1	0,007
1024,5	0,007
1024,9	0,008
1025,3	0,007
1025,7	0,007
1026,1	0,006
1026,6	0,005
1027	0,005
1027,4	0,005
1027,8	0,005
1028,2	0,005
1028,6	0,005
1029	0,005
1029,5	0,006
1029,9	0,006
1030,3	0,006
1030,7	0,006
1031,1	0,006
1031,5	0,007
1032	0,007
1032,4	0,006
1032,8	0,007
1033,2	0,007
1033,6	0,007
1034	0,006
1034,4	0,005
1034,9	0,005
1035,3	0,005
1035,7	0,005
1036,1	0,005
1036,5	0,005
1036,9	0,005
1037,4	0,006
1037,8	0,007
1038,2	0,007
1038,6	0,006
1039	0,006
1039,4	0,006
1039,8	0,005
1040,3	0,005
1040,7	0,005
1041,1	0,005
1041,5	0,005
1041,9	0,005
1042,3	0,006
1042,7	0,006
1043,2	0,006
1043,6	0,005
1044	0,005
1044,4	0,005
1044,8	0,005
1045,2	0,004
1045,6	0,005
1046,1	0,005
1046,5	0,005
1046,9	0,005
1047,3	0,005
1047,7	0,004
1048,1	0,004
1048,5	0,004
1049	0,004
1049,4	0,003
1049,8	0,003
1050,2	0,002
1050,6	0,004
1051	0,005
1051,4	0,005
1051,9	0,005
1052,3	0,005
1052,7	0,006
1053,1	0,006
1053,5	0,006
1053,9	0,006
1054,3	0,007
1054,8	0,007
1055,2	0,007
1055,6	0,007
1056	0,007
1056,4	0,006
1056,8	0,006
1057,2	0,006
1057,6	0,006
1058,1	0,005
1058,5	0,006
1058,9	0,005
1059,3	0,005
1059,7	0,005
1060,1	0,005
1060,5	0,005
1061	0,005
1061,4	0,005
1061,8	0,006
1062,2	0,006
1062,6	0,006
1063	0,006
1063,4	0,005
1063,8	0,005
1064,3	0,005
1064,7	0,004
1065,1	0,004
1065,5	0,003
1065,9	0,003
1066,3	0,004
1066,7	0,003
1067,1	0,003
1067,6	0,005
1068	0,004
1068,4	0,005
1068,8	0,005
1069,2	0,005
1069,6	0,006
1070	0,006
1070,4	0,006
1070,9	0,007
1071,3	0,008
1071,7	0,008
1072,1	0,007
1072,5	0,007
1072,9	0,007
1073,3	0,005
1073,7	0,006
1074,2	0,006
1074,6	0,006
1075	0,007
1075,4	0,007
1075,8	0,006
1076,2	0,005
1076,6	0,005
1077	0,005
1077,5	0,006
1077,9	0,006
1078,3	0,007
1078,7	0,008
1079,1	0,01
1079,5	0,008
1079,9	0,008
1080,3	0,008
1080,7	0,009
1081,2	0,008
1081,6	0,008
1082	0,008
1082,4	0,011
1082,8	0,01
1083,2	0,01
1083,6	0,01
1084	0,009
1084,5	0,007
1084,9	0,007
1085,3	0,005
1085,7	0,006
1086,1	0,005
1086,5	0,005
1086,9	0,007
1087,3	0,009
1087,7	0,01
1088,2	0,011
1088,6	0,011
1089	0,009
1089,4	0,01
1089,8	0,01
1090,2	0,01
1090,6	0,008
1091	0,008
1091,4	0,005
1091,9	0,008
1092,3	0,008
1092,7	0,008
1093,1	0,01
1093,5	0,009
1093,9	0,01
1094,3	0,011
1094,7	0,012
1095,1	0,01
1095,5	0,01
1096	0,008
1096,4	0,008
1096,8	0,01
1097,2	0,015
1097,6	0,015
1098	0,016
1098,4	0,016
1098,8	0,016
1099,2	0,023
1099,6	0,024
1100,1	0,026
1100,5	0,034
1100,9	0,032
1101,3	0,036
1101,7	0,036
1102,1	0,039
1102,5	0,04
1102,9	0,029
1103,3	0,016
1103,7	0,023
1104,2	0,026
1104,6	0,032
1105	0,032
1105,4	0,022
1105,8	0,037
1106,2	0,057
1106,6	0,069
1107	0,062
1107,4	0,064
1107,8	0,054
1108,3	-0
