Data from Absorbance_150.txt Node
Date: Fri Nov 13 19:46:59 MSK 2020
User: vat
Spectrometer: MAYP114033
Trigger mode: 0
Integration Time (sec): 8,000000E-3
Scans to average: 10
Electric dark correction enabled: true
Nonlinearity correction enabled: false
Boxcar width: 3
XAxis mode: Wavelengths
Number of Pixels in Spectrum: 2068
>>>>>Begin Spectral Data<<<<<
199,4	-0,183
199,9	0,015
200,4	0,03
200,8	0,048
201,3	0,033
201,8	0,029
202,2	0,025
202,7	0,032
203,2	0,025
203,6	0,035
204,1	0,034
204,6	0,039
205	0,041
205,5	0,046
206	0,057
206,4	0,057
206,9	0,049
207,4	0,041
207,8	0,041
208,3	0,038
208,8	0,034
209,2	0,029
209,7	0,03
210,2	0,018
210,6	0,021
211,1	0,009
211,5	0,013
212	0,006
212,5	0,01
212,9	0,013
213,4	0,016
213,9	0,024
214,3	0,043
214,8	0,043
215,3	0,049
215,7	0,047
216,2	0,041
216,7	0,039
217,1	0,028
217,6	0,023
218,1	0,019
218,5	0,019
219	0,016
219,5	0,025
219,9	0,037
220,4	0,046
220,9	0,048
221,3	0,04
221,8	0,032
222,3	0,042
222,7	0,041
223,2	0,042
223,6	0,049
224,1	0,051
224,6	0,066
225	0,079
225,5	0,056
226	0,058
226,4	0,046
226,9	0,036
227,4	0,031
227,8	0,032
228,3	0,03
228,8	0,053
229,2	0,051
229,7	0,061
230,2	0,048
230,6	0,049
231,1	0,056
231,5	0,047
232	0,039
232,5	0,046
232,9	0,048
233,4	0,072
233,9	0,067
234,3	0,068
234,8	0,073
235,3	0,073
235,7	0,068
236,2	0,083
236,7	0,076
237,1	0,085
237,6	0,088
238,1	0,095
238,5	0,095
239	0,106
239,4	0,103
239,9	0,117
240,4	0,129
240,8	0,128
241,3	0,14
241,8	0,15
242,2	0,145
242,7	0,136
243,2	0,129
243,6	0,122
244,1	0,119
244,6	0,123
245	0,132
245,5	0,146
245,9	0,165
246,4	0,182
246,9	0,19
247,3	0,196
247,8	0,202
248,3	0,201
248,7	0,212
249,2	0,218
249,7	0,228
250,1	0,235
250,6	0,235
251	0,235
251,5	0,242
252	0,242
252,4	0,245
252,9	0,246
253,4	0,248
253,8	0,253
254,3	0,258
254,8	0,262
255,2	0,267
255,7	0,273
256,1	0,279
256,6	0,285
257,1	0,293
257,5	0,299
258	0,308
258,5	0,318
258,9	0,325
259,4	0,334
259,9	0,345
260,3	0,355
260,8	0,367
261,2	0,377
261,7	0,387
262,2	0,399
262,6	0,411
263,1	0,422
263,6	0,434
264	0,445
264,5	0,457
264,9	0,469
265,4	0,481
265,9	0,491
266,3	0,503
266,8	0,514
267,3	0,526
267,7	0,538
268,2	0,55
268,7	0,56
269,1	0,572
269,6	0,585
270	0,597
270,5	0,609
271	0,621
271,4	0,632
271,9	0,645
272,4	0,656
272,8	0,668
273,3	0,678
273,7	0,688
274,2	0,699
274,7	0,71
275,1	0,72
275,6	0,729
276,1	0,737
276,5	0,746
277	0,755
277,4	0,763
277,9	0,77
278,4	0,776
278,8	0,782
279,3	0,788
279,8	0,792
280,2	0,797
280,7	0,801
281,1	0,803
281,6	0,806
282,1	0,808
282,5	0,809
283	0,81
283,4	0,809
283,9	0,807
284,4	0,804
284,8	0,801
285,3	0,797
285,8	0,793
286,2	0,788
286,7	0,783
287,1	0,777
287,6	0,77
288,1	0,763
288,5	0,755
289	0,745
289,5	0,735
289,9	0,725
290,4	0,713
290,8	0,702
291,3	0,689
291,8	0,676
292,2	0,663
292,7	0,648
293,1	0,634
293,6	0,618
294,1	0,604
294,5	0,587
295	0,572
295,5	0,555
295,9	0,539
296,4	0,523
296,8	0,507
297,3	0,489
297,8	0,473
298,2	0,456
298,7	0,439
299,1	0,422
299,6	0,406
300,1	0,39
300,5	0,374
301	0,359
301,5	0,344
301,9	0,329
302,4	0,315
302,8	0,3
303,3	0,286
303,8	0,273
304,2	0,26
304,7	0,248
305,1	0,236
305,6	0,225
306,1	0,214
306,5	0,203
307	0,192
307,4	0,183
307,9	0,174
308,4	0,165
308,8	0,156
309,3	0,149
309,8	0,142
310,2	0,135
310,7	0,128
311,1	0,121
311,6	0,114
312,1	0,109
312,5	0,103
313	0,098
313,4	0,093
313,9	0,089
314,4	0,084
314,8	0,08
315,3	0,077
315,7	0,073
316,2	0,07
316,7	0,067
317,1	0,064
317,6	0,062
318	0,059
318,5	0,057
319	0,055
319,4	0,053
319,9	0,051
320,3	0,049
320,8	0,047
321,3	0,045
321,7	0,043
322,2	0,042
322,6	0,042
323,1	0,041
323,6	0,04
324	0,039
324,5	0,039
324,9	0,038
325,4	0,038
325,9	0,037
326,3	0,036
326,8	0,036
327,2	0,035
327,7	0,035
328,2	0,034
328,6	0,034
329,1	0,034
329,5	0,033
330	0,032
330,5	0,032
330,9	0,032
331,4	0,031
331,8	0,03
332,3	0,031
332,8	0,03
333,2	0,03
333,7	0,03
334,1	0,029
334,6	0,029
335,1	0,029
335,5	0,029
336	0,029
336,4	0,029
336,9	0,028
337,4	0,028
337,8	0,028
338,3	0,028
338,7	0,028
339,2	0,028
339,7	0,027
340,1	0,027
340,6	0,027
341	0,027
341,5	0,027
342	0,026
342,4	0,026
342,9	0,027
343,3	0,026
343,8	0,026
344,2	0,026
344,7	0,026
345,2	0,026
345,6	0,026
346,1	0,026
346,5	0,026
347	0,026
347,5	0,026
347,9	0,026
348,4	0,026
348,8	0,025
349,3	0,024
349,8	0,025
350,2	0,024
350,7	0,024
351,1	0,024
351,6	0,024
352	0,024
352,5	0,024
353	0,024
353,4	0,024
353,9	0,024
354,3	0,024
354,8	0,023
355,3	0,024
355,7	0,024
356,2	0,023
356,6	0,023
357,1	0,023
357,5	0,024
358	0,023
358,5	0,023
358,9	0,023
359,4	0,023
359,8	0,023
360,3	0,023
360,8	0,023
361,2	0,023
361,7	0,023
362,1	0,023
362,6	0,023
363	0,022
363,5	0,022
364	0,021
364,4	0,021
364,9	0,021
365,3	0,021
365,8	0,022
366,3	0,022
366,7	0,021
367,2	0,021
367,6	0,02
368,1	0,02
368,5	0,02
369	0,02
369,5	0,019
369,9	0,019
370,4	0,02
370,8	0,02
371,3	0,02
371,7	0,02
372,2	0,02
372,7	0,02
373,1	0,02
373,6	0,02
374	0,02
374,5	0,02
374,9	0,02
375,4	0,02
375,9	0,02
376,3	0,02
376,8	0,02
377,2	0,019
377,7	0,02
378,2	0,019
378,6	0,019
379,1	0,019
379,5	0,019
380	0,019
380,4	0,019
380,9	0,018
381,4	0,018
381,8	0,017
382,3	0,018
382,7	0,018
383,2	0,018
383,6	0,018
384,1	0,018
384,6	0,018
385	0,018
385,5	0,017
385,9	0,017
386,4	0,016
386,8	0,017
387,3	0,017
387,7	0,018
388,2	0,018
388,7	0,018
389,1	0,019
389,6	0,019
390	0,018
390,5	0,018
390,9	0,017
391,4	0,017
391,9	0,017
392,3	0,017
392,8	0,017
393,2	0,017
393,7	0,017
394,1	0,017
394,6	0,017
395,1	0,017
395,5	0,017
396	0,017
396,4	0,017
396,9	0,016
397,3	0,016
397,8	0,016
398,2	0,016
398,7	0,016
399,2	0,016
399,6	0,016
400,1	0,016
400,5	0,016
401	0,016
401,4	0,015
401,9	0,015
402,4	0,014
402,8	0,014
403,3	0,015
403,7	0,015
404,2	0,014
404,6	0,014
405,1	0,015
405,5	0,015
406	0,015
406,5	0,015
406,9	0,014
407,4	0,015
407,8	0,015
408,3	0,014
408,7	0,014
409,2	0,014
409,6	0,013
410,1	0,013
410,6	0,013
411	0,013
411,5	0,014
411,9	0,014
412,4	0,014
412,8	0,014
413,3	0,014
413,7	0,014
414,2	0,014
414,7	0,014
415,1	0,014
415,6	0,014
416	0,014
416,5	0,014
416,9	0,014
417,4	0,014
417,8	0,014
418,3	0,015
418,8	0,015
419,2	0,015
419,7	0,014
420,1	0,014
420,6	0,015
421	0,014
421,5	0,014
421,9	0,014
422,4	0,014
422,8	0,014
423,3	0,014
423,8	0,014
424,2	0,014
424,7	0,013
425,1	0,014
425,6	0,014
426	0,014
426,5	0,014
426,9	0,014
427,4	0,014
427,9	0,013
428,3	0,013
428,8	0,013
429,2	0,013
429,7	0,013
430,1	0,013
430,6	0,013
431	0,013
431,5	0,013
431,9	0,013
432,4	0,013
432,8	0,013
433,3	0,013
433,8	0,013
434,2	0,013
434,7	0,013
435,1	0,013
435,6	0,013
436	0,012
436,5	0,012
436,9	0,012
437,4	0,012
437,8	0,012
438,3	0,011
438,8	0,011
439,2	0,012
439,7	0,011
440,1	0,012
440,6	0,012
441	0,012
441,5	0,012
441,9	0,013
442,4	0,013
442,8	0,013
443,3	0,012
443,7	0,012
444,2	0,012
444,7	0,013
445,1	0,013
445,6	0,013
446	0,013
446,5	0,013
446,9	0,013
447,4	0,013
447,8	0,013
448,3	0,012
448,7	0,012
449,2	0,012
449,6	0,012
450,1	0,012
450,6	0,012
451	0,012
451,5	0,012
451,9	0,012
452,4	0,012
452,8	0,012
453,3	0,012
453,7	0,012
454,2	0,012
454,6	0,011
455,1	0,011
455,5	0,011
456	0,011
456,4	0,011
456,9	0,011
457,3	0,011
457,8	0,01
458,3	0,01
458,7	0,011
459,2	0,01
459,6	0,01
460,1	0,01
460,5	0,01
461	0,011
461,4	0,011
461,9	0,011
462,3	0,011
462,8	0,011
463,2	0,011
463,7	0,011
464,1	0,011
464,6	0,01
465	0,011
465,5	0,011
466	0,011
466,4	0,011
466,9	0,011
467,3	0,011
467,8	0,012
468,2	0,011
468,7	0,011
469,1	0,011
469,6	0,011
470	0,011
470,5	0,011
470,9	0,01
471,4	0,011
471,8	0,011
472,3	0,011
472,7	0,011
473,2	0,011
473,6	0,011
474,1	0,011
474,5	0,011
475	0,011
475,4	0,011
475,9	0,01
476,4	0,01
476,8	0,01
477,3	0,01
477,7	0,01
478,2	0,01
478,6	0,01
479,1	0,01
479,5	0,01
480	0,01
480,4	0,01
480,9	0,011
481,3	0,011
481,8	0,01
482,2	0,01
482,7	0,01
483,1	0,01
483,6	0,01
484	0,009
484,5	0,01
484,9	0,01
485,4	0,01
485,8	0,01
486,3	0,01
486,7	0,01
487,2	0,011
487,6	0,01
488,1	0,01
488,5	0,009
489	0,009
489,4	0,009
489,9	0,008
490,4	0,008
490,8	0,009
491,3	0,009
491,7	0,009
492,2	0,009
492,6	0,01
493,1	0,01
493,5	0,011
494	0,01
494,4	0,01
494,9	0,009
495,3	0,009
495,8	0,009
496,2	0,009
496,7	0,008
497,1	0,008
497,6	0,009
498	0,009
498,5	0,009
498,9	0,009
499,4	0,009
499,8	0,009
500,3	0,009
500,7	0,009
501,2	0,009
501,6	0,008
502,1	0,008
502,5	0,008
503	0,008
503,4	0,008
503,9	0,009
504,3	0,009
504,8	0,009
505,2	0,009
505,7	0,01
506,1	0,009
506,6	0,009
507	0,008
507,5	0,008
507,9	0,008
508,4	0,007
508,8	0,008
509,3	0,008
509,7	0,008
510,2	0,008
510,6	0,008
511,1	0,008
511,5	0,008
512	0,007
512,4	0,008
512,9	0,008
513,3	0,007
513,8	0,007
514,2	0,007
514,7	0,008
515,1	0,009
515,6	0,008
516	0,008
516,5	0,008
516,9	0,008
517,4	0,008
517,8	0,007
518,3	0,007
518,7	0,008
519,2	0,007
519,6	0,008
520,1	0,008
520,5	0,008
521	0,008
521,4	0,007
521,9	0,007
522,3	0,007
522,8	0,007
523,2	0,007
523,7	0,007
524,1	0,007
524,6	0,006
525	0,007
525,5	0,006
525,9	0,006
526,4	0,007
526,8	0,007
527,3	0,007
527,7	0,007
528,2	0,006
528,6	0,006
529,1	0,006
529,5	0,006
530	0,006
530,4	0,006
530,9	0,006
531,3	0,006
531,8	0,007
532,2	0,006
532,6	0,006
533,1	0,006
533,5	0,005
534	0,005
534,4	0,006
534,9	0,006
535,3	0,007
535,8	0,006
536,2	0,006
536,7	0,007
537,1	0,007
537,6	0,007
538	0,007
538,5	0,007
538,9	0,008
539,4	0,008
539,8	0,008
540,3	0,008
540,7	0,007
541,2	0,007
541,6	0,007
542,1	0,007
542,5	0,007
543	0,006
543,4	0,006
543,9	0,006
544,3	0,006
544,8	0,006
545,2	0,006
545,7	0,006
546,1	0,006
546,5	0,006
547	0,006
547,4	0,006
547,9	0,006
548,3	0,006
548,8	0,006
549,2	0,006
549,7	0,006
550,1	0,006
550,6	0,005
551	0,006
551,5	0,006
551,9	0,006
552,4	0,006
552,8	0,005
553,3	0,006
553,7	0,006
554,2	0,005
554,6	0,006
555,1	0,005
555,5	0,005
555,9	0,005
556,4	0,006
556,8	0,005
557,3	0,006
557,7	0,006
558,2	0,006
558,6	0,006
559,1	0,006
559,5	0,005
560	0,005
560,4	0,005
560,9	0,004
561,3	0,004
561,8	0,004
562,2	0,004
562,7	0,005
563,1	0,005
563,6	0,005
564	0,005
564,4	0,004
564,9	0,005
565,3	0,004
565,8	0,004
566,2	0,004
566,7	0,004
567,1	0,004
567,6	0,005
568	0,004
568,5	0,005
568,9	0,005
569,4	0,005
569,8	0,005
570,3	0,005
570,7	0,005
571,1	0,005
571,6	0,005
572	0,004
572,5	0,004
572,9	0,004
573,4	0,005
573,8	0,005
574,3	0,004
574,7	0,004
575,2	0,004
575,6	0,004
576,1	0,004
576,5	0,004
576,9	0,004
577,4	0,005
577,8	0,005
578,3	0,005
578,7	0,005
579,2	0,005
579,6	0,005
580,1	0,005
580,5	0,005
581	0,005
581,4	0,005
581,9	0,005
582,3	0,005
582,7	0,005
583,2	0,005
583,6	0,005
584,1	0,004
584,5	0,004
585	0,005
585,4	0,005
585,9	0,005
586,3	0,005
586,8	0,005
587,2	0,005
587,6	0,005
588,1	0,004
588,5	0,005
589	0,005
589,4	0,005
589,9	0,005
590,3	0,005
590,8	0,005
591,2	0,005
591,7	0,004
592,1	0,004
592,5	0,004
593	0,004
593,4	0,004
593,9	0,004
594,3	0,004
594,8	0,004
595,2	0,004
595,7	0,004
596,1	0,004
596,6	0,004
597	0,005
597,4	0,005
597,9	0,005
598,3	0,005
598,8	0,004
599,2	0,004
599,7	0,004
600,1	0,004
600,6	0,004
601	0,004
601,4	0,003
601,9	0,004
602,3	0,004
602,8	0,004
603,2	0,004
603,7	0,004
604,1	0,004
604,6	0,004
605	0,004
605,4	0,004
605,9	0,004
606,3	0,004
606,8	0,004
607,2	0,004
607,7	0,004
608,1	0,003
608,6	0,003
609	0,003
609,4	0,003
609,9	0,003
610,3	0,003
610,8	0,003
611,2	0,003
611,7	0,003
612,1	0,004
612,6	0,004
613	0,003
613,4	0,003
613,9	0,004
614,3	0,004
614,8	0,003
615,2	0,003
615,7	0,003
616,1	0,003
616,6	0,003
617	0,003
617,4	0,003
617,9	0,004
618,3	0,004
618,8	0,004
619,2	0,004
619,7	0,004
620,1	0,004
620,5	0,003
621	0,003
621,4	0,004
621,9	0,004
622,3	0,004
622,8	0,004
623,2	0,004
623,6	0,004
624,1	0,004
624,5	0,004
625	0,004
625,4	0,003
625,9	0,003
626,3	0,003
626,8	0,003
627,2	0,003
627,6	0,003
628,1	0,003
628,5	0,004
629	0,003
629,4	0,003
629,9	0,003
630,3	0,003
630,7	0,003
631,2	0,003
631,6	0,002
632,1	0,003
632,5	0,003
633	0,003
633,4	0,003
633,8	0,003
634,3	0,003
634,7	0,004
635,2	0,004
635,6	0,004
636,1	0,004
636,5	0,003
636,9	0,002
637,4	0,002
637,8	0,002
638,3	0,002
638,7	0,002
639,2	0,002
639,6	0,002
640	0,002
640,5	0,003
640,9	0,003
641,4	0,003
641,8	0,003
642,2	0,003
642,7	0,004
643,1	0,003
643,6	0,003
644	0,003
644,5	0,003
644,9	0,003
645,3	0,003
645,8	0,002
646,2	0,003
646,7	0,003
647,1	0,002
647,6	0,002
648	0,002
648,4	0,002
648,9	0,002
649,3	0,002
649,8	0,002
650,2	0,002
650,6	0,002
651,1	0,002
651,5	0,002
652	0,003
652,4	0,002
652,9	0,002
653,3	0,002
653,7	0,001
654,2	0
654,6	0
655,1	-0
655,5	0,001
655,9	0,001
656,4	0,001
656,8	0,002
657,3	0,002
657,7	0,003
658,2	0,004
658,6	0,002
659	0,002
659,5	0,002
659,9	0,001
660,4	0,001
660,8	0,002
661,2	0,002
661,7	0,002
662,1	0,002
662,6	0,002
663	0,002
663,4	0,002
663,9	0,002
664,3	0,002
664,8	0,002
665,2	0,002
665,6	0,001
666,1	0,001
666,5	0,002
667	0,001
667,4	0,001
667,9	0,001
668,3	0,002
668,7	0,002
669,2	0,002
669,6	0,002
670,1	0,002
670,5	0,002
670,9	0,003
671,4	0,002
671,8	0,003
672,3	0,002
672,7	0,002
673,1	0,002
673,6	0,002
674	0,002
674,5	0,002
674,9	0,001
675,3	0,002
675,8	0,002
676,2	0,002
676,7	0,002
677,1	0,002
677,5	0,002
678	0,003
678,4	0,003
678,9	0,002
679,3	0,002
679,7	0,002
680,2	0,002
680,6	0,002
681,1	0,002
681,5	0,002
681,9	0,002
682,4	0,002
682,8	0,002
683,3	0,002
683,7	0,002
684,1	0,002
684,6	0,001
685	0,001
685,5	0,001
685,9	0,001
686,3	0,001
686,8	0,001
687,2	0,001
687,7	0,001
688,1	0,001
688,5	0,001
689	0,001
689,4	0,001
689,9	0,002
690,3	0,002
690,7	0,002
691,2	0,002
691,6	0,001
692	0,001
692,5	0,001
692,9	0,001
693,4	0,001
693,8	0,001
694,2	0,001
694,7	0,001
695,1	0,001
695,6	0,001
696	0,001
696,4	0,002
696,9	0,002
697,3	0,002
697,8	0,002
698,2	0,002
698,6	0,002
699,1	0,002
699,5	0,002
699,9	0,002
700,4	0,002
700,8	0,002
701,3	0,002
701,7	0,001
702,1	0,001
702,6	0,001
703	0,001
703,5	0,002
703,9	0,002
704,3	0,002
704,8	0,002
705,2	0,002
705,6	0,002
706,1	0,002
706,5	0,001
707	0,001
707,4	0,001
707,8	0,001
708,3	0,001
708,7	0,001
709,2	0,001
709,6	0,001
710	0,001
710,5	0,001
710,9	0,002
711,3	0,002
711,8	0,001
712,2	0,001
712,7	0,001
713,1	0,001
713,5	0,001
714	0,001
714,4	0,001
714,8	0,002
715,3	0,002
715,7	0,002
716,2	0,002
716,6	0,002
717	0,002
717,5	0,001
717,9	0,001
718,3	0,001
718,8	0,001
719,2	0,002
719,7	0,002
720,1	0,002
720,5	0,002
721	0,002
721,4	0,002
721,8	0,002
722,3	0,002
722,7	0,002
723,2	0,002
723,6	0,002
724	0,001
724,5	0,002
724,9	0,002
725,3	0,002
725,8	0,002
726,2	0,002
726,7	0,002
727,1	0,002
727,5	0,002
728	0,002
728,4	0,002
728,8	0,002
729,3	0,002
729,7	0,002
730,1	0,002
730,6	0,002
731	0,002
731,5	0,002
731,9	0,002
732,3	0,002
732,8	0,002
733,2	0,002
733,6	0,002
734,1	0,002
734,5	0,002
734,9	0,002
735,4	0,002
735,8	0,002
736,3	0,003
736,7	0,002
737,1	0,002
737,6	0,003
738	0,002
738,4	0,002
738,9	0,002
739,3	0,002
739,7	0,002
740,2	0,002
740,6	0,002
741,1	0,002
741,5	0,001
741,9	0,001
742,4	0,002
742,8	0,002
743,2	0,001
743,7	0,001
744,1	0,001
744,5	0,001
745	0,001
745,4	0,001
745,8	0,001
746,3	0,001
746,7	0,001
747,2	0,001
747,6	0,002
748	0,001
748,5	0,001
748,9	0,001
749,3	0,001
749,8	0,001
750,2	0,002
750,6	0,002
751,1	0,002
751,5	0,002
751,9	0,002
752,4	0,002
752,8	0,002
753,3	0,001
753,7	0,001
754,1	0,001
754,6	0,001
755	0,001
755,4	0,001
755,9	0,001
756,3	0,001
756,7	0,001
757,2	0,001
757,6	0,001
758	0,001
758,5	0,001
758,9	0,001
759,3	0,001
759,8	0,001
760,2	0,001
760,6	0,002
761,1	0,002
761,5	0,002
761,9	0,002
762,4	0,002
762,8	0,002
763,3	0,002
763,7	0,002
764,1	0,002
764,6	0,002
765	0,002
765,4	0,002
765,9	0,002
766,3	0,002
766,7	0,002
767,2	0,002
767,6	0,002
768	0,002
768,5	0,002
768,9	0,002
769,3	0,002
769,8	0,002
770,2	0,002
770,6	0,002
771,1	0,002
771,5	0,001
771,9	0,001
772,4	0,001
772,8	0,001
773,2	0,001
773,7	0,001
774,1	0,001
774,5	0
775	0
775,4	0
775,8	0
776,3	0
776,7	0
777,1	0
777,6	0,001
778	0,001
778,4	0,001
778,9	0,001
779,3	0,001
779,7	0,001
780,2	0,001
780,6	0,002
781	0,002
781,5	0,001
781,9	0,001
782,3	0,001
782,8	0,001
783,2	0
783,6	-0
784,1	-0,001
784,5	-0,001
784,9	-0,001
785,4	-0,001
785,8	-0,001
786,2	-0
786,7	0
787,1	0,001
787,5	0,001
788	0,001
788,4	0,002
788,8	0,002
789,3	0,002
789,7	0,002
790,1	0,002
790,6	0,002
791	0,002
791,4	0,002
791,9	0,001
792,3	0,001
792,7	0,001
793,2	0,001
793,6	0,001
794	0,001
794,5	0,001
794,9	0,002
795,3	0,002
795,8	0,002
796,2	0,002
796,6	0,002
797,1	0,002
797,5	0,002
797,9	0,002
798,4	0,002
798,8	0,002
799,2	0,001
799,7	0,001
800,1	0,001
800,5	0,001
801	0,001
801,4	0,001
801,8	0,001
802,2	0,001
802,7	0,001
803,1	0,001
803,5	0,001
804	0,001
804,4	0,001
804,8	0,001
805,3	0,001
805,7	0,001
806,1	0,001
806,6	0,001
807	0,001
807,4	0,001
807,9	0,002
808,3	0,002
808,7	0,002
809,2	0,002
809,6	0,002
810	0,002
810,4	0,002
810,9	0,001
811,3	0,001
811,7	0,001
812,2	0,001
812,6	0,001
813	0,001
813,5	0,001
813,9	0,001
814,3	0,001
814,8	0,001
815,2	0,001
815,6	0,001
816,1	0
816,5	0
816,9	0
817,3	0,001
817,8	0
818,2	0,001
818,6	0,001
819,1	0,001
819,5	0,001
819,9	0,001
820,4	0
820,8	0,001
821,2	0,001
821,7	0
822,1	0
822,5	0,001
822,9	0,001
823,4	0,001
823,8	0,001
824,2	0,001
824,7	0,001
825,1	0,001
825,5	0,001
826	0,001
826,4	0,001
826,8	0,001
827,3	0,001
827,7	0,001
828,1	0
828,5	0
829	0
829,4	-0
829,8	0
830,3	-0
830,7	-0
831,1	-0
831,6	-0
832	-0
832,4	-0
832,8	-0
833,3	-0
833,7	0
834,1	0
834,6	-0
835	-0
835,4	-0
835,8	-0
836,3	-0
836,7	-0
837,1	-0,001
837,6	-0,001
838	-0,001
838,4	-0,001
838,9	-0,001
839,3	-0,001
839,7	-0,001
840,1	-0,001
840,6	-0,001
841	-0,001
841,4	-0
841,9	0
842,3	-0
842,7	0
843,1	0
843,6	0
844	0,001
844,4	0,001
844,9	0,001
845,3	0,001
845,7	0,001
846,2	0,001
846,6	0,001
847	0,001
847,4	0
847,9	0
848,3	0
848,7	-0
849,2	-0
849,6	0
850	0
850,4	-0
850,9	-0
851,3	-0
851,7	0
852,2	0,001
852,6	0,001
853	0,001
853,4	0,001
853,9	0,001
854,3	0,001
854,7	0,001
855,2	0,001
855,6	0,001
856	0,001
856,4	0,001
856,9	0,001
857,3	0,001
857,7	0,001
858,2	0,002
858,6	0,002
859	0,002
859,4	0,002
859,9	0,001
860,3	0,001
860,7	0,001
861,1	0,001
861,6	0,001
862	0
862,4	-0
862,9	0
863,3	0
863,7	0,001
864,1	0,001
864,6	0,001
865	0,001
865,4	0,002
865,9	0,002
866,3	0,002
866,7	0,001
867,1	0,001
867,6	0,001
868	0,001
868,4	0,001
868,8	0,001
869,3	0,001
869,7	0,001
870,1	0,001
870,6	0,001
871	0,001
871,4	0,001
871,8	0,001
872,3	0,001
872,7	0,001
873,1	0
873,5	0
874	0,001
874,4	0,001
874,8	0
875,3	0
875,7	-0
876,1	0
876,5	0
877	0
877,4	0
877,8	0,001
878,2	0,001
878,7	0,001
879,1	0,001
879,5	0
879,9	0
880,4	0
880,8	0
881,2	0
881,7	0
882,1	0,001
882,5	0,001
882,9	0,001
883,4	0,001
883,8	0,001
884,2	0,001
884,6	0,002
885,1	0,001
885,5	0,001
885,9	0,001
886,3	0,001
886,8	0,001
887,2	0,001
887,6	0,001
888	0,001
888,5	0,001
888,9	0,002
889,3	0,002
889,8	0,002
890,2	0,002
890,6	0,002
891	0,002
891,5	0,002
891,9	0,002
892,3	0,001
892,7	0,001
893,2	0,001
893,6	0,001
894	0,001
894,4	0,001
894,9	0,001
895,3	0,001
895,7	0,001
896,1	0,001
896,6	0,001
897	0,001
897,4	0,001
897,8	0
898,3	0,001
898,7	0,001
899,1	0,001
899,5	0,001
900	0,001
900,4	0,001
900,8	0,001
901,2	0,001
901,7	0,002
902,1	0,001
902,5	0,001
902,9	0,001
903,4	0,001
903,8	0,001
904,2	0,001
904,6	0,001
905,1	0,001
905,5	0,001
905,9	0,001
906,3	0,001
906,8	0,001
907,2	0,001
907,6	0,001
908	0,001
908,5	0,001
908,9	0,001
909,3	0,001
909,7	0,001
910,2	0,001
910,6	0,001
911	0,001
911,4	0,001
911,9	0,001
912,3	0,001
912,7	0,001
913,1	0,001
913,6	0
914	0,001
914,4	0
914,8	-0
915,3	-0
915,7	-0
916,1	-0
916,5	-0
916,9	-0
917,4	0
917,8	0
918,2	0
918,6	-0
919,1	-0
919,5	-0
919,9	-0
920,3	-0,001
920,8	-0
921,2	0
921,6	0
922	0,001
922,5	0,001
922,9	0,001
923,3	0,001
923,7	0,001
924,2	0,001
924,6	0,001
925	0,001
925,4	0
925,8	0
926,3	0,001
926,7	0,001
927,1	0,001
927,5	0,001
928	0,001
928,4	0,001
928,8	0,001
929,2	0,001
929,7	0,001
930,1	0,001
930,5	0,001
930,9	0
931,3	0,001
931,8	0
932,2	0
932,6	-0
933	0
933,5	0
933,9	0,001
934,3	0,001
934,7	0,001
935,2	0,001
935,6	0
936	0
936,4	0
936,8	-0
937,3	-0
937,7	-0
938,1	0
938,5	0
939	-0
939,4	-0
939,8	0
940,2	0,001
940,6	0,001
941,1	0
941,5	0
941,9	0,001
942,3	0,001
942,8	0,001
943,2	0,001
943,6	0,001
944	0,001
944,4	0,001
944,9	0,001
945,3	0
945,7	0
946,1	0,001
946,6	0
947	0
947,4	0
947,8	0
948,2	0
948,7	0,001
949,1	0,001
949,5	0,002
949,9	0,002
950,3	0,002
950,8	0,002
951,2	0,002
951,6	0,001
952	0,001
952,5	0,001
952,9	0
953,3	0,001
953,7	0,001
954,1	0,001
954,6	0,001
955	0,001
955,4	0,001
955,8	0,001
956,2	0,001
956,7	0
957,1	0
957,5	-0
957,9	-0
958,3	-0
958,8	-0
959,2	0
959,6	0
960	-0
960,5	0
960,9	0
961,3	0,001
961,7	0
962,1	-0
962,6	0
963	0,001
963,4	0,001
963,8	0,001
964,2	0,001
964,7	0,002
965,1	0,002
965,5	0,003
965,9	0,003
966,3	0,003
966,8	0,003
967,2	0,002
967,6	0,002
968	0,001
968,4	0,001
968,9	0,001
969,3	0
969,7	0
970,1	0
970,5	0
971	0
971,4	0
971,8	-0
972,2	-0,001
972,6	-0,001
973,1	-0
973,5	-0
973,9	-0,001
974,3	-0
974,7	-0,001
975,2	-0
975,6	-0
976	-0
976,4	-0
976,8	0
977,3	-0,001
977,7	-0
978,1	-0
978,5	-0
978,9	-0
979,4	-0,001
979,8	-0
980,2	-0
980,6	0
981	-0,001
981,5	-0,001
981,9	-0,001
982,3	-0,001
982,7	-0,001
983,1	-0
983,6	-0,001
984	0
984,4	0
984,8	0,001
985,2	0,001
985,6	0,001
986,1	0,001
986,5	0,002
986,9	0,002
987,3	0,002
987,7	0,002
988,2	0,003
988,6	0,003
989	0,002
989,4	0,001
989,8	0,001
990,3	0,001
990,7	0
991,1	-0
991,5	-0
991,9	-0
992,3	-0
992,8	-0,001
993,2	-0,001
993,6	-0
994	0
994,4	-0
994,9	-0
995,3	0
995,7	0
996,1	0
996,5	0
996,9	0
997,4	0
997,8	-0
998,2	-0
998,6	-0
999	-0
999,5	-0
999,9	-0
1000,3	-0
1000,7	-0
1001,1	0
1001,5	0
1002	0
1002,4	0,001
1002,8	0,001
1003,2	0,001
1003,6	0,001
1004	0
1004,5	0,001
1004,9	0,001
1005,3	0
1005,7	0
1006,1	0
1006,6	0,001
1007	0,001
1007,4	-0
1007,8	-0
1008,2	-0,001
1008,6	-0,001
1009,1	-0,001
1009,5	-0,001
1009,9	-0,001
1010,3	-0,001
1010,7	-0,001
1011,1	0
1011,6	0,001
1012	0,001
1012,4	0,001
1012,8	0,002
1013,2	0,001
1013,6	0,001
1014,1	0,001
1014,5	0,001
1014,9	0,002
1015,3	0,001
1015,7	0,002
1016,1	0,002
1016,6	0,002
1017	0,002
1017,4	0,001
1017,8	0,001
1018,2	0
1018,6	-0
1019,1	-0
1019,5	-0
1019,9	-0,001
1020,3	-0,001
1020,7	-0,001
1021,1	-0
1021,6	-0
1022	-0
1022,4	0
1022,8	0,001
1023,2	0,001
1023,6	0,002
1024,1	0,001
1024,5	0,001
1024,9	0,001
1025,3	0
1025,7	0
1026,1	-0
1026,6	-0
1027	-0
1027,4	-0
1027,8	-0,001
1028,2	-0,001
1028,6	-0
1029	-0
1029,5	-0,001
1029,9	-0,001
1030,3	0
1030,7	0,001
1031,1	0,001
1031,5	0,002
1032	0,002
1032,4	0,001
1032,8	0,002
1033,2	0,001
1033,6	0
1034	-0
1034,4	-0,001
1034,9	-0,002
1035,3	-0,002
1035,7	-0,002
1036,1	-0,001
1036,5	-0,001
1036,9	-0,001
1037,4	-0,001
1037,8	-0
1038,2	0
1038,6	0
1039	0
1039,4	-0
1039,8	-0
1040,3	-0
1040,7	-0,001
1041,1	-0,001
1041,5	-0,002
1041,9	-0,001
1042,3	-0,001
1042,7	-0,001
1043,2	-0
1043,6	-0
1044	-0
1044,4	-0,001
1044,8	-0,001
1045,2	-0,002
1045,6	-0,002
1046,1	-0,001
1046,5	-0,001
1046,9	-0,001
1047,3	0
1047,7	-0,001
1048,1	-0,001
1048,5	-0,001
1049	-0,002
1049,4	-0,003
1049,8	-0,002
1050,2	-0,002
1050,6	-0,001
1051	0
1051,4	0,001
1051,9	0,001
1052,3	0,001
1052,7	0,002
1053,1	0,001
1053,5	0,001
1053,9	0,001
1054,3	0,001
1054,8	0
1055,2	0,001
1055,6	0,001
1056	0,001
1056,4	0,001
1056,8	0
1057,2	0
1057,6	0
1058,1	-0,001
1058,5	-0,001
1058,9	-0,002
1059,3	-0,001
1059,7	-0,001
1060,1	-0,001
1060,5	-0,001
1061	-0,001
1061,4	-0,001
1061,8	-0,001
1062,2	-0,001
1062,6	-0,002
1063	-0,001
1063,4	-0,001
1063,8	-0,001
1064,3	-0,001
1064,7	-0,001
1065,1	-0,001
1065,5	-0,001
1065,9	-0,001
1066,3	-0,001
1066,7	-0,002
1067,1	-0,001
1067,6	-0
1068	-0,001
1068,4	-0,001
1068,8	-0,001
1069,2	-0,001
1069,6	-0
1070	-0
1070,4	-0
1070,9	0
1071,3	0,001
1071,7	0,001
1072,1	-0
1072,5	-0
1072,9	-0,001
1073,3	-0,002
1073,7	-0,002
1074,2	-0,001
1074,6	-0
1075	0
1075,4	-0,001
1075,8	-0,001
1076,2	-0,002
1076,6	-0,003
1077	-0,003
1077,5	-0,003
1077,9	-0,003
1078,3	-0,002
1078,7	-0,001
1079,1	0,001
1079,5	0
1079,9	0,002
1080,3	0,002
1080,7	0,004
1081,2	0,004
1081,6	0,004
1082	0,003
1082,4	0,005
1082,8	0,003
1083,2	0,005
1083,6	0,004
1084	0,002
1084,5	0
1084,9	0,003
1085,3	0,003
1085,7	0,003
1086,1	-0,001
1086,5	-0
1086,9	0
1087,3	0,002
1087,7	0
1088,2	-0,001
1088,6	0
1089	0,002
1089,4	-0
1089,8	0,001
1090,2	0,002
1090,6	0
1091	-0
1091,4	-0,005
1091,9	-0,005
1092,3	-0,002
1092,7	-0,002
1093,1	-0,003
1093,5	-0,006
1093,9	-0,004
1094,3	-0,003
1094,7	-0,002
1095,1	-0,005
1095,5	-0,009
1096	-0,006
1096,4	-0,008
1096,8	-0,011
1097,2	-0,008
1097,6	-0,008
1098	-0,008
1098,4	-0,002
1098,8	-0,005
1099,2	0,001
1099,6	0,012
1100,1	0,016
1100,5	0,02
1100,9	0,026
1101,3	0,019
1101,7	0,025
1102,1	0,023
1102,5	0,012
1102,9	0,004
1103,3	-0
1103,7	-0,003
1104,2	0,001
1104,6	-0,001
1105	-0,003
1105,4	0,001
1105,8	0,01
1106,2	0,019
1106,6	0,018
1107	0,036
1107,4	0,038
1107,8	0,064
1108,3	-0
