Data from Absorbance_080.txt Node
Date: Fri Nov 13 14:33:29 MSK 2020
User: vat
Spectrometer: MAYP114033
Trigger mode: 0
Integration Time (sec): 8,000000E-3
Scans to average: 10
Electric dark correction enabled: true
Nonlinearity correction enabled: false
Boxcar width: 3
XAxis mode: Wavelengths
Number of Pixels in Spectrum: 2068
>>>>>Begin Spectral Data<<<<<
199,4	-0
199,9	0,456
200,4	0,16
200,8	0,217
201,3	0,112
201,8	0,182
202,2	0,15
202,7	0,162
203,2	0,168
203,6	0,17
204,1	0,16
204,6	0,168
205	0,152
205,5	0,154
206	0,154
206,4	0,151
206,9	0,169
207,4	0,166
207,8	0,167
208,3	0,164
208,8	0,175
209,2	0,165
209,7	0,185
210,2	0,188
210,6	0,19
211,1	0,204
211,5	0,22
212	0,24
212,5	0,262
212,9	0,247
213,4	0,243
213,9	0,27
214,3	0,259
214,8	0,245
215,3	0,228
215,7	0,207
216,2	0,227
216,7	0,229
217,1	0,21
217,6	0,198
218,1	0,198
218,5	0,216
219	0,235
219,5	0,224
219,9	0,218
220,4	0,211
220,9	0,208
221,3	0,216
221,8	0,205
222,3	0,189
222,7	0,195
223,2	0,206
223,6	0,224
224,1	0,223
224,6	0,22
225	0,22
225,5	0,226
226	0,233
226,4	0,219
226,9	0,197
227,4	0,211
227,8	0,229
228,3	0,21
228,8	0,216
229,2	0,211
229,7	0,226
230,2	0,249
230,6	0,24
231,1	0,237
231,5	0,263
232	0,253
232,5	0,274
232,9	0,27
233,4	0,273
233,9	0,292
234,3	0,289
234,8	0,291
235,3	0,304
235,7	0,269
236,2	0,264
236,7	0,252
237,1	0,253
237,6	0,249
238,1	0,254
238,5	0,255
239	0,267
239,4	0,279
239,9	0,289
240,4	0,291
240,8	0,308
241,3	0,33
241,8	0,318
242,2	0,315
242,7	0,312
243,2	0,321
243,6	0,335
244,1	0,339
244,6	0,318
245	0,337
245,5	0,362
245,9	0,367
246,4	0,361
246,9	0,368
247,3	0,373
247,8	0,372
248,3	0,376
248,7	0,377
249,2	0,385
249,7	0,403
250,1	0,408
250,6	0,403
251	0,412
251,5	0,416
252	0,411
252,4	0,415
252,9	0,415
253,4	0,417
253,8	0,425
254,3	0,429
254,8	0,434
255,2	0,444
255,7	0,451
256,1	0,458
256,6	0,468
257,1	0,479
257,5	0,491
258	0,504
258,5	0,517
258,9	0,532
259,4	0,548
259,9	0,562
260,3	0,577
260,8	0,592
261,2	0,609
261,7	0,626
262,2	0,641
262,6	0,655
263,1	0,673
263,6	0,688
264	0,706
264,5	0,722
264,9	0,739
265,4	0,756
265,9	0,774
266,3	0,79
266,8	0,809
267,3	0,826
267,7	0,844
268,2	0,861
268,7	0,88
269,1	0,899
269,6	0,918
270	0,938
270,5	0,955
271	0,975
271,4	0,992
271,9	1,009
272,4	1,026
272,8	1,042
273,3	1,058
273,7	1,072
274,2	1,087
274,7	1,102
275,1	1,118
275,6	1,132
276,1	1,146
276,5	1,157
277	1,171
277,4	1,18
277,9	1,191
278,4	1,199
278,8	1,208
279,3	1,216
279,8	1,223
280,2	1,229
280,7	1,234
281,1	1,239
281,6	1,242
282,1	1,241
282,5	1,243
283	1,243
283,4	1,242
283,9	1,24
284,4	1,234
284,8	1,229
285,3	1,224
285,8	1,215
286,2	1,207
286,7	1,197
287,1	1,186
287,6	1,176
288,1	1,165
288,5	1,154
289	1,14
289,5	1,126
289,9	1,112
290,4	1,095
290,8	1,075
291,3	1,056
291,8	1,035
292,2	1,015
292,7	0,994
293,1	0,973
293,6	0,952
294,1	0,93
294,5	0,908
295	0,884
295,5	0,861
295,9	0,835
296,4	0,809
296,8	0,784
297,3	0,759
297,8	0,734
298,2	0,709
298,7	0,684
299,1	0,66
299,6	0,636
300,1	0,612
300,5	0,589
301	0,566
301,5	0,543
301,9	0,522
302,4	0,499
302,8	0,478
303,3	0,458
303,8	0,438
304,2	0,419
304,7	0,401
305,1	0,383
305,6	0,366
306,1	0,35
306,5	0,334
307	0,319
307,4	0,304
307,9	0,29
308,4	0,277
308,8	0,264
309,3	0,252
309,8	0,241
310,2	0,23
310,7	0,22
311,1	0,209
311,6	0,2
312,1	0,192
312,5	0,183
313	0,175
313,4	0,168
313,9	0,161
314,4	0,155
314,8	0,149
315,3	0,143
315,7	0,137
316,2	0,132
316,7	0,128
317,1	0,123
317,6	0,119
318	0,115
318,5	0,112
319	0,108
319,4	0,105
319,9	0,102
320,3	0,1
320,8	0,097
321,3	0,095
321,7	0,093
322,2	0,09
322,6	0,089
323,1	0,087
323,6	0,085
324	0,084
324,5	0,083
324,9	0,082
325,4	0,081
325,9	0,079
326,3	0,078
326,8	0,077
327,2	0,076
327,7	0,075
328,2	0,074
328,6	0,073
329,1	0,072
329,5	0,071
330	0,071
330,5	0,07
330,9	0,069
331,4	0,069
331,8	0,068
332,3	0,068
332,8	0,068
333,2	0,067
333,7	0,067
334,1	0,066
334,6	0,065
335,1	0,065
335,5	0,065
336	0,064
336,4	0,064
336,9	0,063
337,4	0,063
337,8	0,063
338,3	0,062
338,7	0,063
339,2	0,063
339,7	0,062
340,1	0,062
340,6	0,062
341	0,062
341,5	0,061
342	0,061
342,4	0,06
342,9	0,06
343,3	0,059
343,8	0,059
344,2	0,059
344,7	0,059
345,2	0,059
345,6	0,059
346,1	0,058
346,5	0,059
347	0,058
347,5	0,058
347,9	0,058
348,4	0,057
348,8	0,057
349,3	0,057
349,8	0,056
350,2	0,056
350,7	0,056
351,1	0,056
351,6	0,056
352	0,056
352,5	0,056
353	0,056
353,4	0,056
353,9	0,056
354,3	0,055
354,8	0,055
355,3	0,055
355,7	0,055
356,2	0,055
356,6	0,054
357,1	0,054
357,5	0,053
358	0,053
358,5	0,053
358,9	0,053
359,4	0,052
359,8	0,052
360,3	0,052
360,8	0,052
361,2	0,052
361,7	0,052
362,1	0,051
362,6	0,051
363	0,051
363,5	0,051
364	0,051
364,4	0,051
364,9	0,051
365,3	0,05
365,8	0,05
366,3	0,049
366,7	0,049
367,2	0,049
367,6	0,048
368,1	0,048
368,5	0,048
369	0,048
369,5	0,048
369,9	0,048
370,4	0,047
370,8	0,048
371,3	0,048
371,7	0,048
372,2	0,047
372,7	0,047
373,1	0,047
373,6	0,047
374	0,047
374,5	0,047
374,9	0,046
375,4	0,047
375,9	0,046
376,3	0,046
376,8	0,046
377,2	0,045
377,7	0,046
378,2	0,045
378,6	0,045
379,1	0,045
379,5	0,044
380	0,044
380,4	0,044
380,9	0,044
381,4	0,044
381,8	0,043
382,3	0,043
382,7	0,043
383,2	0,043
383,6	0,042
384,1	0,042
384,6	0,042
385	0,042
385,5	0,043
385,9	0,042
386,4	0,042
386,8	0,042
387,3	0,041
387,7	0,041
388,2	0,041
388,7	0,04
389,1	0,04
389,6	0,04
390	0,04
390,5	0,04
390,9	0,04
391,4	0,04
391,9	0,04
392,3	0,04
392,8	0,04
393,2	0,04
393,7	0,039
394,1	0,039
394,6	0,039
395,1	0,039
395,5	0,039
396	0,039
396,4	0,038
396,9	0,039
397,3	0,038
397,8	0,038
398,2	0,038
398,7	0,038
399,2	0,038
399,6	0,038
400,1	0,038
400,5	0,038
401	0,037
401,4	0,037
401,9	0,036
402,4	0,036
402,8	0,036
403,3	0,037
403,7	0,037
404,2	0,036
404,6	0,037
405,1	0,037
405,5	0,036
406	0,036
406,5	0,036
406,9	0,036
407,4	0,036
407,8	0,036
408,3	0,036
408,7	0,036
409,2	0,036
409,6	0,036
410,1	0,035
410,6	0,035
411	0,035
411,5	0,035
411,9	0,035
412,4	0,035
412,8	0,035
413,3	0,035
413,7	0,035
414,2	0,035
414,7	0,034
415,1	0,035
415,6	0,034
416	0,034
416,5	0,034
416,9	0,034
417,4	0,034
417,8	0,034
418,3	0,034
418,8	0,034
419,2	0,034
419,7	0,034
420,1	0,034
420,6	0,034
421	0,034
421,5	0,033
421,9	0,033
422,4	0,033
422,8	0,033
423,3	0,033
423,8	0,032
424,2	0,033
424,7	0,033
425,1	0,033
425,6	0,032
426	0,033
426,5	0,032
426,9	0,032
427,4	0,031
427,9	0,031
428,3	0,031
428,8	0,031
429,2	0,03
429,7	0,03
430,1	0,03
430,6	0,03
431	0,03
431,5	0,03
431,9	0,03
432,4	0,031
432,8	0,031
433,3	0,031
433,8	0,031
434,2	0,031
434,7	0,03
435,1	0,03
435,6	0,03
436	0,03
436,5	0,03
436,9	0,03
437,4	0,031
437,8	0,031
438,3	0,031
438,8	0,031
439,2	0,031
439,7	0,031
440,1	0,03
440,6	0,03
441	0,03
441,5	0,029
441,9	0,029
442,4	0,029
442,8	0,029
443,3	0,028
443,7	0,028
444,2	0,028
444,7	0,028
445,1	0,028
445,6	0,028
446	0,028
446,5	0,028
446,9	0,028
447,4	0,028
447,8	0,028
448,3	0,028
448,7	0,028
449,2	0,028
449,6	0,028
450,1	0,028
450,6	0,028
451	0,028
451,5	0,028
451,9	0,028
452,4	0,028
452,8	0,028
453,3	0,027
453,7	0,027
454,2	0,027
454,6	0,027
455,1	0,027
455,5	0,027
456	0,027
456,4	0,027
456,9	0,027
457,3	0,026
457,8	0,026
458,3	0,026
458,7	0,026
459,2	0,026
459,6	0,026
460,1	0,026
460,5	0,026
461	0,026
461,4	0,027
461,9	0,026
462,3	0,026
462,8	0,026
463,2	0,026
463,7	0,025
464,1	0,025
464,6	0,025
465	0,024
465,5	0,024
466	0,024
466,4	0,024
466,9	0,024
467,3	0,024
467,8	0,024
468,2	0,024
468,7	0,024
469,1	0,025
469,6	0,025
470	0,025
470,5	0,025
470,9	0,025
471,4	0,026
471,8	0,025
472,3	0,025
472,7	0,025
473,2	0,025
473,6	0,025
474,1	0,024
474,5	0,024
475	0,024
475,4	0,023
475,9	0,023
476,4	0,023
476,8	0,024
477,3	0,023
477,7	0,024
478,2	0,024
478,6	0,024
479,1	0,024
479,5	0,023
480	0,023
480,4	0,024
480,9	0,024
481,3	0,023
481,8	0,023
482,2	0,023
482,7	0,024
483,1	0,025
483,6	0,025
484	0,026
484,5	0,025
484,9	0,023
485,4	0,022
485,8	0,022
486,3	0,021
486,7	0,02
487,2	0,018
487,6	0,018
488,1	0,021
488,5	0,022
489	0,022
489,4	0,022
489,9	0,022
490,4	0,022
490,8	0,023
491,3	0,023
491,7	0,023
492,2	0,023
492,6	0,023
493,1	0,022
493,5	0,022
494	0,022
494,4	0,022
494,9	0,022
495,3	0,022
495,8	0,022
496,2	0,022
496,7	0,021
497,1	0,021
497,6	0,02
498	0,02
498,5	0,02
498,9	0,02
499,4	0,02
499,8	0,02
500,3	0,02
500,7	0,02
501,2	0,02
501,6	0,019
502,1	0,02
502,5	0,019
503	0,019
503,4	0,02
503,9	0,02
504,3	0,02
504,8	0,021
505,2	0,02
505,7	0,021
506,1	0,021
506,6	0,021
507	0,02
507,5	0,02
507,9	0,02
508,4	0,02
508,8	0,02
509,3	0,02
509,7	0,02
510,2	0,02
510,6	0,021
511,1	0,02
511,5	0,02
512	0,021
512,4	0,02
512,9	0,02
513,3	0,02
513,8	0,02
514,2	0,02
514,7	0,02
515,1	0,019
515,6	0,018
516	0,018
516,5	0,018
516,9	0,018
517,4	0,018
517,8	0,019
518,3	0,019
518,7	0,019
519,2	0,019
519,6	0,019
520,1	0,019
520,5	0,018
521	0,018
521,4	0,017
521,9	0,016
522,3	0,017
522,8	0,017
523,2	0,017
523,7	0,018
524,1	0,017
524,6	0,017
525	0,018
525,5	0,017
525,9	0,017
526,4	0,017
526,8	0,017
527,3	0,017
527,7	0,017
528,2	0,017
528,6	0,018
529,1	0,017
529,5	0,017
530	0,017
530,4	0,017
530,9	0,016
531,3	0,016
531,8	0,016
532,2	0,016
532,6	0,016
533,1	0,016
533,5	0,016
534	0,016
534,4	0,016
534,9	0,016
535,3	0,016
535,8	0,016
536,2	0,016
536,7	0,016
537,1	0,016
537,6	0,016
538	0,016
538,5	0,017
538,9	0,017
539,4	0,016
539,8	0,016
540,3	0,016
540,7	0,016
541,2	0,016
541,6	0,015
542,1	0,015
542,5	0,014
543	0,014
543,4	0,014
543,9	0,015
544,3	0,015
544,8	0,015
545,2	0,015
545,7	0,016
546,1	0,016
546,5	0,016
547	0,016
547,4	0,015
547,9	0,015
548,3	0,015
548,8	0,014
549,2	0,014
549,7	0,014
550,1	0,015
550,6	0,015
551	0,015
551,5	0,015
551,9	0,015
552,4	0,015
552,8	0,014
553,3	0,014
553,7	0,014
554,2	0,014
554,6	0,014
555,1	0,014
555,5	0,014
555,9	0,014
556,4	0,014
556,8	0,014
557,3	0,014
557,7	0,014
558,2	0,014
558,6	0,014
559,1	0,015
559,5	0,015
560	0,014
560,4	0,014
560,9	0,013
561,3	0,013
561,8	0,012
562,2	0,012
562,7	0,012
563,1	0,012
563,6	0,012
564	0,012
564,4	0,013
564,9	0,013
565,3	0,013
565,8	0,013
566,2	0,013
566,7	0,013
567,1	0,013
567,6	0,014
568	0,014
568,5	0,014
568,9	0,014
569,4	0,013
569,8	0,013
570,3	0,013
570,7	0,012
571,1	0,012
571,6	0,013
572	0,013
572,5	0,012
572,9	0,012
573,4	0,012
573,8	0,012
574,3	0,012
574,7	0,012
575,2	0,012
575,6	0,012
576,1	0,012
576,5	0,012
576,9	0,011
577,4	0,011
577,8	0,011
578,3	0,01
578,7	0,01
579,2	0,011
579,6	0,011
580,1	0,012
580,5	0,011
581	0,011
581,4	0,011
581,9	0,01
582,3	0,01
582,7	0,01
583,2	0,01
583,6	0,01
584,1	0,011
584,5	0,011
585	0,011
585,4	0,011
585,9	0,011
586,3	0,011
586,8	0,01
587,2	0,011
587,6	0,011
588,1	0,01
588,5	0,01
589	0,01
589,4	0,01
589,9	0,011
590,3	0,011
590,8	0,012
591,2	0,012
591,7	0,012
592,1	0,011
592,5	0,011
593	0,01
593,4	0,01
593,9	0,01
594,3	0,009
594,8	0,009
595,2	0,01
595,7	0,01
596,1	0,01
596,6	0,01
597	0,01
597,4	0,01
597,9	0,01
598,3	0,01
598,8	0,01
599,2	0,01
599,7	0,01
600,1	0,01
600,6	0,01
601	0,01
601,4	0,01
601,9	0,01
602,3	0,01
602,8	0,01
603,2	0,009
603,7	0,009
604,1	0,009
604,6	0,008
605	0,008
605,4	0,008
605,9	0,008
606,3	0,008
606,8	0,008
607,2	0,009
607,7	0,009
608,1	0,01
608,6	0,011
609	0,011
609,4	0,011
609,9	0,011
610,3	0,01
610,8	0,01
611,2	0,01
611,7	0,009
612,1	0,009
612,6	0,009
613	0,009
613,4	0,009
613,9	0,009
614,3	0,008
614,8	0,008
615,2	0,008
615,7	0,008
616,1	0,009
616,6	0,009
617	0,009
617,4	0,01
617,9	0,01
618,3	0,009
618,8	0,009
619,2	0,008
619,7	0,009
620,1	0,009
620,5	0,009
621	0,009
621,4	0,009
621,9	0,009
622,3	0,009
622,8	0,008
623,2	0,008
623,6	0,008
624,1	0,007
624,5	0,007
625	0,007
625,4	0,008
625,9	0,008
626,3	0,008
626,8	0,008
627,2	0,008
627,6	0,008
628,1	0,008
628,5	0,008
629	0,008
629,4	0,008
629,9	0,008
630,3	0,008
630,7	0,008
631,2	0,008
631,6	0,008
632,1	0,008
632,5	0,008
633	0,008
633,4	0,008
633,8	0,008
634,3	0,008
634,7	0,008
635,2	0,008
635,6	0,008
636,1	0,009
636,5	0,008
636,9	0,008
637,4	0,008
637,8	0,008
638,3	0,008
638,7	0,008
639,2	0,008
639,6	0,008
640	0,008
640,5	0,008
640,9	0,008
641,4	0,008
641,8	0,008
642,2	0,007
642,7	0,007
643,1	0,007
643,6	0,007
644	0,007
644,5	0,007
644,9	0,007
645,3	0,007
645,8	0,008
646,2	0,008
646,7	0,008
647,1	0,008
647,6	0,008
648	0,008
648,4	0,008
648,9	0,007
649,3	0,008
649,8	0,008
650,2	0,008
650,6	0,008
651,1	0,008
651,5	0,008
652	0,009
652,4	0,009
652,9	0,009
653,3	0,014
653,7	0,022
654,2	0,015
654,6	0,012
655,1	0,009
655,5	0,006
655,9	0,006
656,4	0,005
656,8	-0,001
657,3	-0
657,7	0
658,2	0,001
658,6	0,007
659	0,007
659,5	0,007
659,9	0,007
660,4	0,007
660,8	0,008
661,2	0,008
661,7	0,008
662,1	0,008
662,6	0,008
663	0,008
663,4	0,007
663,9	0,007
664,3	0,007
664,8	0,006
665,2	0,006
665,6	0,006
666,1	0,006
666,5	0,007
667	0,007
667,4	0,007
667,9	0,007
668,3	0,007
668,7	0,007
669,2	0,007
669,6	0,007
670,1	0,007
670,5	0,007
670,9	0,007
671,4	0,007
671,8	0,007
672,3	0,006
672,7	0,006
673,1	0,006
673,6	0,006
674	0,006
674,5	0,006
674,9	0,006
675,3	0,006
675,8	0,006
676,2	0,006
676,7	0,006
677,1	0,006
677,5	0,007
678	0,007
678,4	0,007
678,9	0,007
679,3	0,007
679,7	0,006
680,2	0,006
680,6	0,006
681,1	0,006
681,5	0,006
681,9	0,007
682,4	0,007
682,8	0,007
683,3	0,007
683,7	0,007
684,1	0,007
684,6	0,007
685	0,006
685,5	0,006
685,9	0,006
686,3	0,006
686,8	0,006
687,2	0,006
687,7	0,006
688,1	0,007
688,5	0,007
689	0,007
689,4	0,007
689,9	0,008
690,3	0,008
690,7	0,008
691,2	0,008
691,6	0,007
692	0,007
692,5	0,007
692,9	0,006
693,4	0,006
693,8	0,006
694,2	0,005
694,7	0,006
695,1	0,006
695,6	0,007
696	0,007
696,4	0,007
696,9	0,007
697,3	0,007
697,8	0,006
698,2	0,006
698,6	0,005
699,1	0,005
699,5	0,006
699,9	0,006
700,4	0,005
700,8	0,005
701,3	0,006
701,7	0,006
702,1	0,006
702,6	0,006
703	0,006
703,5	0,006
703,9	0,005
704,3	0,005
704,8	0,005
705,2	0,006
705,6	0,005
706,1	0,006
706,5	0,006
707	0,006
707,4	0,006
707,8	0,006
708,3	0,005
708,7	0,006
709,2	0,005
709,6	0,005
710	0,005
710,5	0,005
710,9	0,006
711,3	0,006
711,8	0,006
712,2	0,006
712,7	0,006
713,1	0,006
713,5	0,005
714	0,005
714,4	0,005
714,8	0,005
715,3	0,005
715,7	0,005
716,2	0,005
716,6	0,006
717	0,006
717,5	0,006
717,9	0,006
718,3	0,006
718,8	0,006
719,2	0,006
719,7	0,006
720,1	0,006
720,5	0,006
721	0,006
721,4	0,006
721,8	0,006
722,3	0,006
722,7	0,006
723,2	0,006
723,6	0,006
724	0,007
724,5	0,007
724,9	0,007
725,3	0,007
725,8	0,007
726,2	0,007
726,7	0,007
727,1	0,006
727,5	0,006
728	0,006
728,4	0,007
728,8	0,006
729,3	0,006
729,7	0,006
730,1	0,006
730,6	0,006
731	0,005
731,5	0,005
731,9	0,005
732,3	0,005
732,8	0,006
733,2	0,006
733,6	0,006
734,1	0,006
734,5	0,005
734,9	0,005
735,4	0,005
735,8	0,005
736,3	0,005
736,7	0,005
737,1	0,006
737,6	0,006
738	0,005
738,4	0,005
738,9	0,005
739,3	0,005
739,7	0,004
740,2	0,004
740,6	0,004
741,1	0,004
741,5	0,004
741,9	0,004
742,4	0,004
742,8	0,005
743,2	0,005
743,7	0,005
744,1	0,005
744,5	0,005
745	0,005
745,4	0,005
745,8	0,005
746,3	0,005
746,7	0,005
747,2	0,006
747,6	0,006
748	0,006
748,5	0,006
748,9	0,006
749,3	0,006
749,8	0,006
750,2	0,006
750,6	0,005
751,1	0,005
751,5	0,005
751,9	0,005
752,4	0,005
752,8	0,005
753,3	0,005
753,7	0,004
754,1	0,005
754,6	0,005
755	0,005
755,4	0,006
755,9	0,006
756,3	0,006
756,7	0,007
757,2	0,006
757,6	0,006
758	0,006
758,5	0,006
758,9	0,005
759,3	0,005
759,8	0,005
760,2	0,004
760,6	0,004
761,1	0,004
761,5	0,004
761,9	0,005
762,4	0,005
762,8	0,005
763,3	0,006
763,7	0,006
764,1	0,006
764,6	0,006
765	0,006
765,4	0,006
765,9	0,006
766,3	0,006
766,7	0,006
767,2	0,007
767,6	0,007
768	0,007
768,5	0,007
768,9	0,007
769,3	0,007
769,8	0,006
770,2	0,006
770,6	0,006
771,1	0,006
771,5	0,006
771,9	0,005
772,4	0,005
772,8	0,005
773,2	0,005
773,7	0,005
774,1	0,005
774,5	0,005
775	0,005
775,4	0,005
775,8	0,005
776,3	0,005
776,7	0,005
777,1	0,005
777,6	0,005
778	0,005
778,4	0,005
778,9	0,005
779,3	0,005
779,7	0,005
780,2	0,005
780,6	0,005
781	0,005
781,5	0,006
781,9	0,006
782,3	0,006
782,8	0,005
783,2	0,005
783,6	0,005
784,1	0,005
784,5	0,006
784,9	0,006
785,4	0,006
785,8	0,006
786,2	0,007
786,7	0,007
787,1	0,007
787,5	0,006
788	0,006
788,4	0,006
788,8	0,005
789,3	0,005
789,7	0,005
790,1	0,005
790,6	0,005
791	0,005
791,4	0,006
791,9	0,006
792,3	0,006
792,7	0,006
793,2	0,006
793,6	0,006
794	0,006
794,5	0,005
794,9	0,005
795,3	0,005
795,8	0,005
796,2	0,005
796,6	0,005
797,1	0,005
797,5	0,005
797,9	0,005
798,4	0,005
798,8	0,005
799,2	0,004
799,7	0,004
800,1	0,004
800,5	0,004
801	0,004
801,4	0,005
801,8	0,005
802,2	0,005
802,7	0,005
803,1	0,004
803,5	0,004
804	0,005
804,4	0,005
804,8	0,005
805,3	0,005
805,7	0,005
806,1	0,006
806,6	0,006
807	0,006
807,4	0,005
807,9	0,005
808,3	0,005
808,7	0,005
809,2	0,005
809,6	0,006
810	0,006
810,4	0,005
810,9	0,005
811,3	0,005
811,7	0,006
812,2	0,005
812,6	0,005
813	0,005
813,5	0,005
813,9	0,005
814,3	0,006
814,8	0,005
815,2	0,005
815,6	0,005
816,1	0,006
816,5	0,006
816,9	0,006
817,3	0,005
817,8	0,005
818,2	0,006
818,6	0,006
819,1	0,006
819,5	0,006
819,9	0,006
820,4	0,006
820,8	0,006
821,2	0,005
821,7	0,005
822,1	0,005
822,5	0,005
822,9	0,005
823,4	0,005
823,8	0,005
824,2	0,005
824,7	0,005
825,1	0,004
825,5	0,005
826	0,005
826,4	0,005
826,8	0,005
827,3	0,005
827,7	0,005
828,1	0,005
828,5	0,005
829	0,005
829,4	0,005
829,8	0,005
830,3	0,005
830,7	0,005
831,1	0,005
831,6	0,005
832	0,004
832,4	0,004
832,8	0,004
833,3	0,004
833,7	0,004
834,1	0,004
834,6	0,004
835	0,005
835,4	0,005
835,8	0,005
836,3	0,005
836,7	0,005
837,1	0,005
837,6	0,005
838	0,004
838,4	0,004
838,9	0,004
839,3	0,003
839,7	0,003
840,1	0,003
840,6	0,003
841	0,004
841,4	0,004
841,9	0,005
842,3	0,005
842,7	0,006
843,1	0,006
843,6	0,006
844	0,006
844,4	0,006
844,9	0,006
845,3	0,006
845,7	0,006
846,2	0,006
846,6	0,006
847	0,006
847,4	0,006
847,9	0,006
848,3	0,005
848,7	0,006
849,2	0,006
849,6	0,005
850	0,005
850,4	0,005
850,9	0,006
851,3	0,005
851,7	0,005
852,2	0,005
852,6	0,004
853	0,004
853,4	0,004
853,9	0,004
854,3	0,004
854,7	0,005
855,2	0,005
855,6	0,005
856	0,005
856,4	0,005
856,9	0,005
857,3	0,004
857,7	0,004
858,2	0,005
858,6	0,005
859	0,005
859,4	0,005
859,9	0,005
860,3	0,005
860,7	0,005
861,1	0,005
861,6	0,006
862	0,006
862,4	0,006
862,9	0,006
863,3	0,006
863,7	0,006
864,1	0,006
864,6	0,006
865	0,005
865,4	0,005
865,9	0,005
866,3	0,006
866,7	0,006
867,1	0,005
867,6	0,006
868	0,006
868,4	0,006
868,8	0,006
869,3	0,005
869,7	0,005
870,1	0,005
870,6	0,005
871	0,005
871,4	0,004
871,8	0,004
872,3	0,004
872,7	0,005
873,1	0,005
873,5	0,005
874	0,005
874,4	0,006
874,8	0,006
875,3	0,006
875,7	0,006
876,1	0,005
876,5	0,005
877	0,005
877,4	0,005
877,8	0,005
878,2	0,005
878,7	0,004
879,1	0,004
879,5	0,004
879,9	0,004
880,4	0,005
880,8	0,005
881,2	0,005
881,7	0,006
882,1	0,006
882,5	0,006
882,9	0,006
883,4	0,006
883,8	0,006
884,2	0,006
884,6	0,005
885,1	0,005
885,5	0,005
885,9	0,005
886,3	0,005
886,8	0,005
887,2	0,005
887,6	0,005
888	0,005
888,5	0,004
888,9	0,004
889,3	0,004
889,8	0,004
890,2	0,004
890,6	0,004
891	0,004
891,5	0,004
891,9	0,005
892,3	0,005
892,7	0,005
893,2	0,006
893,6	0,006
894	0,006
894,4	0,006
894,9	0,005
895,3	0,006
895,7	0,006
896,1	0,006
896,6	0,005
897	0,005
897,4	0,005
897,8	0,005
898,3	0,005
898,7	0,005
899,1	0,005
899,5	0,006
900	0,006
900,4	0,006
900,8	0,006
901,2	0,006
901,7	0,006
902,1	0,005
902,5	0,005
902,9	0,005
903,4	0,005
903,8	0,004
904,2	0,004
904,6	0,004
905,1	0,004
905,5	0,005
905,9	0,004
906,3	0,004
906,8	0,005
907,2	0,005
907,6	0,005
908	0,005
908,5	0,005
908,9	0,005
909,3	0,004
909,7	0,004
910,2	0,004
910,6	0,004
911	0,005
911,4	0,004
911,9	0,005
912,3	0,005
912,7	0,004
913,1	0,004
913,6	0,004
914	0,004
914,4	0,004
914,8	0,004
915,3	0,004
915,7	0,004
916,1	0,005
916,5	0,005
916,9	0,005
917,4	0,005
917,8	0,004
918,2	0,004
918,6	0,004
919,1	0,004
919,5	0,004
919,9	0,005
920,3	0,005
920,8	0,005
921,2	0,005
921,6	0,006
922	0,005
922,5	0,005
922,9	0,005
923,3	0,005
923,7	0,005
924,2	0,005
924,6	0,005
925	0,005
925,4	0,005
925,8	0,005
926,3	0,005
926,7	0,005
927,1	0,005
927,5	0,005
928	0,004
928,4	0,004
928,8	0,004
929,2	0,004
929,7	0,003
930,1	0,003
930,5	0,004
930,9	0,004
931,3	0,004
931,8	0,004
932,2	0,004
932,6	0,004
933	0,004
933,5	0,004
933,9	0,003
934,3	0,003
934,7	0,003
935,2	0,003
935,6	0,004
936	0,004
936,4	0,004
936,8	0,004
937,3	0,004
937,7	0,004
938,1	0,004
938,5	0,004
939	0,004
939,4	0,004
939,8	0,004
940,2	0,004
940,6	0,004
941,1	0,004
941,5	0,003
941,9	0,003
942,3	0,003
942,8	0,003
943,2	0,002
943,6	0,002
944	0,002
944,4	0,003
944,9	0,003
945,3	0,003
945,7	0,004
946,1	0,004
946,6	0,005
947	0,005
947,4	0,006
947,8	0,007
948,2	0,007
948,7	0,008
949,1	0,008
949,5	0,008
949,9	0,008
950,3	0,007
950,8	0,006
951,2	0,006
951,6	0,006
952	0,005
952,5	0,005
952,9	0,004
953,3	0,004
953,7	0,005
954,1	0,004
954,6	0,004
955	0,004
955,4	0,004
955,8	0,004
956,2	0,004
956,7	0,004
957,1	0,004
957,5	0,004
957,9	0,004
958,3	0,004
958,8	0,003
959,2	0,003
959,6	0,003
960	0,003
960,5	0,003
960,9	0,002
961,3	0,003
961,7	0,003
962,1	0,004
962,6	0,004
963	0,004
963,4	0,004
963,8	0,005
964,2	0,004
964,7	0,004
965,1	0,004
965,5	0,004
965,9	0,003
966,3	0,003
966,8	0,003
967,2	0,003
967,6	0,003
968	0,003
968,4	0,003
968,9	0,004
969,3	0,004
969,7	0,003
970,1	0,004
970,5	0,004
971	0,004
971,4	0,004
971,8	0,004
972,2	0,005
972,6	0,005
973,1	0,005
973,5	0,005
973,9	0,005
974,3	0,005
974,7	0,005
975,2	0,005
975,6	0,005
976	0,005
976,4	0,006
976,8	0,006
977,3	0,006
977,7	0,006
978,1	0,006
978,5	0,006
978,9	0,006
979,4	0,006
979,8	0,006
980,2	0,006
980,6	0,006
981	0,006
981,5	0,006
981,9	0,006
982,3	0,005
982,7	0,005
983,1	0,005
983,6	0,004
984	0,005
984,4	0,005
984,8	0,005
985,2	0,005
985,6	0,005
986,1	0,006
986,5	0,006
986,9	0,006
987,3	0,006
987,7	0,006
988,2	0,006
988,6	0,006
989	0,006
989,4	0,006
989,8	0,006
990,3	0,006
990,7	0,006
991,1	0,007
991,5	0,007
991,9	0,007
992,3	0,007
992,8	0,008
993,2	0,008
993,6	0,008
994	0,007
994,4	0,007
994,9	0,007
995,3	0,007
995,7	0,007
996,1	0,007
996,5	0,007
996,9	0,008
997,4	0,008
997,8	0,008
998,2	0,008
998,6	0,007
999	0,008
999,5	0,008
999,9	0,007
1000,3	0,007
1000,7	0,007
1001,1	0,007
1001,5	0,008
1002	0,007
1002,4	0,007
1002,8	0,007
1003,2	0,006
1003,6	0,006
1004	0,007
1004,5	0,006
1004,9	0,006
1005,3	0,005
1005,7	0,006
1006,1	0,006
1006,6	0,006
1007	0,006
1007,4	0,006
1007,8	0,006
1008,2	0,006
1008,6	0,006
1009,1	0,006
1009,5	0,005
1009,9	0,005
1010,3	0,006
1010,7	0,006
1011,1	0,006
1011,6	0,006
1012	0,007
1012,4	0,007
1012,8	0,007
1013,2	0,007
1013,6	0,007
1014,1	0,007
1014,5	0,007
1014,9	0,006
1015,3	0,007
1015,7	0,006
1016,1	0,006
1016,6	0,006
1017	0,007
1017,4	0,008
1017,8	0,008
1018,2	0,008
1018,6	0,008
1019,1	0,009
1019,5	0,008
1019,9	0,008
1020,3	0,008
1020,7	0,008
1021,1	0,008
1021,6	0,008
1022	0,008
1022,4	0,007
1022,8	0,008
1023,2	0,008
1023,6	0,008
1024,1	0,008
1024,5	0,008
1024,9	0,008
1025,3	0,008
1025,7	0,008
1026,1	0,008
1026,6	0,008
1027	0,009
1027,4	0,009
1027,8	0,009
1028,2	0,009
1028,6	0,009
1029	0,009
1029,5	0,009
1029,9	0,009
1030,3	0,009
1030,7	0,009
1031,1	0,009
1031,5	0,01
1032	0,01
1032,4	0,01
1032,8	0,01
1033,2	0,01
1033,6	0,01
1034	0,01
1034,4	0,01
1034,9	0,01
1035,3	0,01
1035,7	0,009
1036,1	0,009
1036,5	0,009
1036,9	0,009
1037,4	0,008
1037,8	0,008
1038,2	0,008
1038,6	0,009
1039	0,009
1039,4	0,009
1039,8	0,009
1040,3	0,009
1040,7	0,009
1041,1	0,01
1041,5	0,009
1041,9	0,009
1042,3	0,01
1042,7	0,01
1043,2	0,01
1043,6	0,01
1044	0,01
1044,4	0,01
1044,8	0,01
1045,2	0,009
1045,6	0,009
1046,1	0,009
1046,5	0,009
1046,9	0,008
1047,3	0,008
1047,7	0,009
1048,1	0,009
1048,5	0,01
1049	0,01
1049,4	0,01
1049,8	0,011
1050,2	0,01
1050,6	0,009
1051	0,01
1051,4	0,009
1051,9	0,009
1052,3	0,01
1052,7	0,01
1053,1	0,01
1053,5	0,01
1053,9	0,009
1054,3	0,008
1054,8	0,008
1055,2	0,008
1055,6	0,008
1056	0,008
1056,4	0,008
1056,8	0,009
1057,2	0,009
1057,6	0,009
1058,1	0,009
1058,5	0,009
1058,9	0,01
1059,3	0,01
1059,7	0,011
1060,1	0,012
1060,5	0,012
1061	0,012
1061,4	0,012
1061,8	0,012
1062,2	0,012
1062,6	0,011
1063	0,009
1063,4	0,009
1063,8	0,01
1064,3	0,01
1064,7	0,009
1065,1	0,008
1065,5	0,008
1065,9	0,009
1066,3	0,009
1066,7	0,009
1067,1	0,009
1067,6	0,008
1068	0,009
1068,4	0,01
1068,8	0,01
1069,2	0,011
1069,6	0,01
1070	0,01
1070,4	0,011
1070,9	0,012
1071,3	0,011
1071,7	0,012
1072,1	0,011
1072,5	0,011
1072,9	0,011
1073,3	0,012
1073,7	0,012
1074,2	0,012
1074,6	0,012
1075	0,013
1075,4	0,012
1075,8	0,013
1076,2	0,012
1076,6	0,012
1077	0,013
1077,5	0,013
1077,9	0,012
1078,3	0,013
1078,7	0,011
1079,1	0,01
1079,5	0,01
1079,9	0,009
1080,3	0,009
1080,7	0,01
1081,2	0,009
1081,6	0,01
1082	0,011
1082,4	0,012
1082,8	0,012
1083,2	0,012
1083,6	0,012
1084	0,014
1084,5	0,016
1084,9	0,014
1085,3	0,015
1085,7	0,016
1086,1	0,015
1086,5	0,017
1086,9	0,018
1087,3	0,017
1087,7	0,02
1088,2	0,019
1088,6	0,021
1089	0,02
1089,4	0,019
1089,8	0,019
1090,2	0,017
1090,6	0,017
1091	0,018
1091,4	0,018
1091,9	0,022
1092,3	0,022
1092,7	0,022
1093,1	0,025
1093,5	0,027
1093,9	0,026
1094,3	0,025
1094,7	0,025
1095,1	0,029
1095,5	0,029
1096	0,034
1096,4	0,034
1096,8	0,033
1097,2	0,039
1097,6	0,04
1098	0,038
1098,4	0,035
1098,8	0,033
1099,2	0,041
1099,6	0,055
1100,1	0,055
1100,5	0,06
1100,9	0,057
1101,3	0,071
1101,7	0,078
1102,1	0,078
1102,5	0,077
1102,9	0,086
1103,3	0,087
1103,7	0,098
1104,2	0,097
1104,6	0,1
1105	0,1
1105,4	0,098
1105,8	0,09
1106,2	0,088
1106,6	0,093
1107	0,094
1107,4	0,081
1107,8	0,079
1108,3	-0,128
