Data from Absorbance_220.txt Node
Date: Fri Nov 13 21:23:57 MSK 2020
User: vat
Spectrometer: MAYP114033
Trigger mode: 0
Integration Time (sec): 8,000000E-3
Scans to average: 10
Electric dark correction enabled: true
Nonlinearity correction enabled: false
Boxcar width: 3
XAxis mode: Wavelengths
Number of Pixels in Spectrum: 2068
>>>>>Begin Spectral Data<<<<<
199,4	-0,423
199,9	1,21
200,4	0,562
200,8	0,277
201,3	0,164
201,8	0,193
202,2	0,169
202,7	0,169
203,2	0,174
203,6	0,142
204,1	0,156
204,6	0,157
205	0,142
205,5	0,161
206	0,173
206,4	0,159
206,9	0,169
207,4	0,173
207,8	0,171
208,3	0,172
208,8	0,173
209,2	0,174
209,7	0,167
210,2	0,18
210,6	0,179
211,1	0,166
211,5	0,177
212	0,165
212,5	0,17
212,9	0,178
213,4	0,166
213,9	0,174
214,3	0,185
214,8	0,175
215,3	0,185
215,7	0,155
216,2	0,144
216,7	0,154
217,1	0,147
217,6	0,158
218,1	0,171
218,5	0,162
219	0,197
219,5	0,223
219,9	0,234
220,4	0,225
220,9	0,223
221,3	0,203
221,8	0,201
222,3	0,172
222,7	0,154
223,2	0,161
223,6	0,174
224,1	0,168
224,6	0,168
225	0,181
225,5	0,2
226	0,19
226,4	0,148
226,9	0,151
227,4	0,155
227,8	0,181
228,3	0,179
228,8	0,167
229,2	0,187
229,7	0,205
230,2	0,197
230,6	0,199
231,1	0,193
231,5	0,199
232	0,229
232,5	0,22
232,9	0,227
233,4	0,238
233,9	0,227
234,3	0,22
234,8	0,214
235,3	0,201
235,7	0,211
236,2	0,204
236,7	0,191
237,1	0,189
237,6	0,188
238,1	0,189
238,5	0,183
239	0,174
239,4	0,178
239,9	0,175
240,4	0,194
240,8	0,181
241,3	0,196
241,8	0,194
242,2	0,209
242,7	0,21
243,2	0,212
243,6	0,206
244,1	0,23
244,6	0,221
245	0,233
245,5	0,237
245,9	0,243
246,4	0,256
246,9	0,264
247,3	0,266
247,8	0,272
248,3	0,265
248,7	0,264
249,2	0,265
249,7	0,258
250,1	0,25
250,6	0,247
251	0,253
251,5	0,259
252	0,262
252,4	0,263
252,9	0,266
253,4	0,267
253,8	0,267
254,3	0,264
254,8	0,264
255,2	0,266
255,7	0,269
256,1	0,274
256,6	0,281
257,1	0,286
257,5	0,293
258	0,3
258,5	0,305
258,9	0,311
259,4	0,319
259,9	0,325
260,3	0,332
260,8	0,339
261,2	0,347
261,7	0,356
262,2	0,363
262,6	0,371
263,1	0,38
263,6	0,391
264	0,399
264,5	0,407
264,9	0,416
265,4	0,426
265,9	0,435
266,3	0,443
266,8	0,45
267,3	0,46
267,7	0,469
268,2	0,478
268,7	0,488
269,1	0,497
269,6	0,506
270	0,516
270,5	0,525
271	0,535
271,4	0,544
271,9	0,551
272,4	0,56
272,8	0,568
273,3	0,577
273,7	0,584
274,2	0,592
274,7	0,6
275,1	0,608
275,6	0,616
276,1	0,622
276,5	0,629
277	0,636
277,4	0,641
277,9	0,646
278,4	0,651
278,8	0,655
279,3	0,659
279,8	0,662
280,2	0,665
280,7	0,669
281,1	0,671
281,6	0,673
282,1	0,674
282,5	0,675
283	0,675
283,4	0,675
283,9	0,674
284,4	0,672
284,8	0,669
285,3	0,667
285,8	0,663
286,2	0,659
286,7	0,654
287,1	0,649
287,6	0,643
288,1	0,637
288,5	0,63
289	0,623
289,5	0,615
289,9	0,607
290,4	0,598
290,8	0,588
291,3	0,579
291,8	0,569
292,2	0,558
292,7	0,546
293,1	0,535
293,6	0,524
294,1	0,512
294,5	0,501
295	0,488
295,5	0,475
295,9	0,463
296,4	0,45
296,8	0,436
297,3	0,423
297,8	0,409
298,2	0,396
298,7	0,383
299,1	0,371
299,6	0,358
300,1	0,346
300,5	0,334
301	0,322
301,5	0,31
301,9	0,299
302,4	0,287
302,8	0,276
303,3	0,265
303,8	0,254
304,2	0,243
304,7	0,234
305,1	0,224
305,6	0,215
306,1	0,207
306,5	0,199
307	0,191
307,4	0,183
307,9	0,176
308,4	0,169
308,8	0,162
309,3	0,156
309,8	0,15
310,2	0,144
310,7	0,138
311,1	0,134
311,6	0,129
312,1	0,125
312,5	0,12
313	0,116
313,4	0,112
313,9	0,108
314,4	0,105
314,8	0,102
315,3	0,099
315,7	0,097
316,2	0,095
316,7	0,093
317,1	0,091
317,6	0,089
318	0,087
318,5	0,085
319	0,083
319,4	0,081
319,9	0,08
320,3	0,078
320,8	0,077
321,3	0,075
321,7	0,075
322,2	0,074
322,6	0,074
323,1	0,073
323,6	0,072
324	0,072
324,5	0,071
324,9	0,071
325,4	0,07
325,9	0,069
326,3	0,069
326,8	0,068
327,2	0,067
327,7	0,066
328,2	0,066
328,6	0,065
329,1	0,065
329,5	0,064
330	0,064
330,5	0,064
330,9	0,063
331,4	0,063
331,8	0,062
332,3	0,062
332,8	0,062
333,2	0,062
333,7	0,061
334,1	0,061
334,6	0,061
335,1	0,061
335,5	0,06
336	0,06
336,4	0,061
336,9	0,061
337,4	0,061
337,8	0,061
338,3	0,061
338,7	0,061
339,2	0,061
339,7	0,06
340,1	0,06
340,6	0,06
341	0,059
341,5	0,059
342	0,059
342,4	0,059
342,9	0,058
343,3	0,058
343,8	0,058
344,2	0,058
344,7	0,058
345,2	0,058
345,6	0,057
346,1	0,057
346,5	0,057
347	0,057
347,5	0,057
347,9	0,057
348,4	0,057
348,8	0,057
349,3	0,057
349,8	0,057
350,2	0,056
350,7	0,056
351,1	0,056
351,6	0,056
352	0,056
352,5	0,056
353	0,056
353,4	0,056
353,9	0,055
354,3	0,055
354,8	0,055
355,3	0,055
355,7	0,054
356,2	0,054
356,6	0,054
357,1	0,054
357,5	0,054
358	0,054
358,5	0,053
358,9	0,053
359,4	0,054
359,8	0,054
360,3	0,054
360,8	0,055
361,2	0,054
361,7	0,054
362,1	0,055
362,6	0,054
363	0,054
363,5	0,054
364	0,053
364,4	0,054
364,9	0,053
365,3	0,053
365,8	0,053
366,3	0,053
366,7	0,052
367,2	0,053
367,6	0,053
368,1	0,052
368,5	0,053
369	0,053
369,5	0,052
369,9	0,052
370,4	0,051
370,8	0,051
371,3	0,051
371,7	0,05
372,2	0,051
372,7	0,051
373,1	0,051
373,6	0,051
374	0,05
374,5	0,05
374,9	0,051
375,4	0,05
375,9	0,05
376,3	0,049
376,8	0,049
377,2	0,049
377,7	0,048
378,2	0,048
378,6	0,048
379,1	0,048
379,5	0,048
380	0,048
380,4	0,048
380,9	0,048
381,4	0,048
381,8	0,048
382,3	0,048
382,7	0,048
383,2	0,047
383,6	0,048
384,1	0,048
384,6	0,048
385	0,048
385,5	0,048
385,9	0,048
386,4	0,048
386,8	0,048
387,3	0,047
387,7	0,047
388,2	0,046
388,7	0,046
389,1	0,046
389,6	0,047
390	0,046
390,5	0,046
390,9	0,046
391,4	0,047
391,9	0,046
392,3	0,046
392,8	0,046
393,2	0,046
393,7	0,046
394,1	0,046
394,6	0,046
395,1	0,046
395,5	0,046
396	0,046
396,4	0,046
396,9	0,046
397,3	0,046
397,8	0,045
398,2	0,045
398,7	0,045
399,2	0,045
399,6	0,045
400,1	0,044
400,5	0,044
401	0,044
401,4	0,045
401,9	0,044
402,4	0,045
402,8	0,044
403,3	0,044
403,7	0,045
404,2	0,044
404,6	0,044
405,1	0,044
405,5	0,044
406	0,044
406,5	0,043
406,9	0,043
407,4	0,043
407,8	0,043
408,3	0,043
408,7	0,043
409,2	0,043
409,6	0,043
410,1	0,043
410,6	0,044
411	0,044
411,5	0,044
411,9	0,043
412,4	0,043
412,8	0,043
413,3	0,042
413,7	0,042
414,2	0,042
414,7	0,042
415,1	0,042
415,6	0,042
416	0,042
416,5	0,042
416,9	0,042
417,4	0,042
417,8	0,042
418,3	0,043
418,8	0,043
419,2	0,043
419,7	0,042
420,1	0,043
420,6	0,043
421	0,042
421,5	0,042
421,9	0,042
422,4	0,042
422,8	0,042
423,3	0,041
423,8	0,041
424,2	0,041
424,7	0,041
425,1	0,041
425,6	0,041
426	0,041
426,5	0,042
426,9	0,042
427,4	0,042
427,9	0,042
428,3	0,043
428,8	0,042
429,2	0,042
429,7	0,041
430,1	0,041
430,6	0,041
431	0,041
431,5	0,04
431,9	0,04
432,4	0,04
432,8	0,04
433,3	0,04
433,8	0,04
434,2	0,039
434,7	0,039
435,1	0,039
435,6	0,039
436	0,039
436,5	0,039
436,9	0,04
437,4	0,04
437,8	0,04
438,3	0,04
438,8	0,04
439,2	0,04
439,7	0,039
440,1	0,039
440,6	0,039
441	0,039
441,5	0,039
441,9	0,039
442,4	0,039
442,8	0,039
443,3	0,039
443,7	0,039
444,2	0,039
444,7	0,039
445,1	0,04
445,6	0,039
446	0,039
446,5	0,04
446,9	0,04
447,4	0,039
447,8	0,039
448,3	0,039
448,7	0,039
449,2	0,039
449,6	0,039
450,1	0,038
450,6	0,038
451	0,039
451,5	0,039
451,9	0,039
452,4	0,039
452,8	0,039
453,3	0,039
453,7	0,039
454,2	0,038
454,6	0,039
455,1	0,038
455,5	0,038
456	0,038
456,4	0,038
456,9	0,038
457,3	0,038
457,8	0,038
458,3	0,038
458,7	0,038
459,2	0,038
459,6	0,037
460,1	0,037
460,5	0,037
461	0,037
461,4	0,037
461,9	0,037
462,3	0,037
462,8	0,037
463,2	0,037
463,7	0,037
464,1	0,037
464,6	0,037
465	0,036
465,5	0,036
466	0,036
466,4	0,036
466,9	0,036
467,3	0,036
467,8	0,036
468,2	0,037
468,7	0,036
469,1	0,037
469,6	0,037
470	0,037
470,5	0,037
470,9	0,037
471,4	0,037
471,8	0,037
472,3	0,037
472,7	0,037
473,2	0,037
473,6	0,037
474,1	0,037
474,5	0,037
475	0,037
475,4	0,037
475,9	0,037
476,4	0,036
476,8	0,036
477,3	0,036
477,7	0,035
478,2	0,035
478,6	0,035
479,1	0,034
479,5	0,035
480	0,035
480,4	0,035
480,9	0,035
481,3	0,035
481,8	0,035
482,2	0,036
482,7	0,036
483,1	0,038
483,6	0,038
484	0,039
484,5	0,038
484,9	0,036
485,4	0,035
485,8	0,035
486,3	0,034
486,7	0,033
487,2	0,032
487,6	0,031
488,1	0,033
488,5	0,033
489	0,033
489,4	0,034
489,9	0,034
490,4	0,034
490,8	0,034
491,3	0,034
491,7	0,034
492,2	0,034
492,6	0,034
493,1	0,034
493,5	0,033
494	0,034
494,4	0,033
494,9	0,033
495,3	0,033
495,8	0,034
496,2	0,034
496,7	0,035
497,1	0,034
497,6	0,034
498	0,034
498,5	0,034
498,9	0,034
499,4	0,033
499,8	0,033
500,3	0,033
500,7	0,033
501,2	0,033
501,6	0,033
502,1	0,033
502,5	0,033
503	0,033
503,4	0,033
503,9	0,034
504,3	0,033
504,8	0,033
505,2	0,033
505,7	0,032
506,1	0,032
506,6	0,032
507	0,032
507,5	0,032
507,9	0,032
508,4	0,033
508,8	0,033
509,3	0,033
509,7	0,033
510,2	0,033
510,6	0,033
511,1	0,033
511,5	0,033
512	0,033
512,4	0,033
512,9	0,032
513,3	0,031
513,8	0,032
514,2	0,032
514,7	0,032
515,1	0,032
515,6	0,031
516	0,032
516,5	0,032
516,9	0,032
517,4	0,032
517,8	0,033
518,3	0,032
518,7	0,032
519,2	0,032
519,6	0,032
520,1	0,032
520,5	0,032
521	0,032
521,4	0,032
521,9	0,032
522,3	0,032
522,8	0,032
523,2	0,032
523,7	0,032
524,1	0,032
524,6	0,032
525	0,032
525,5	0,032
525,9	0,032
526,4	0,032
526,8	0,032
527,3	0,032
527,7	0,032
528,2	0,032
528,6	0,032
529,1	0,032
529,5	0,032
530	0,032
530,4	0,033
530,9	0,033
531,3	0,032
531,8	0,032
532,2	0,031
532,6	0,031
533,1	0,031
533,5	0,03
534	0,031
534,4	0,031
534,9	0,031
535,3	0,031
535,8	0,031
536,2	0,031
536,7	0,031
537,1	0,031
537,6	0,03
538	0,029
538,5	0,03
538,9	0,03
539,4	0,03
539,8	0,03
540,3	0,029
540,7	0,03
541,2	0,03
541,6	0,03
542,1	0,029
542,5	0,029
543	0,029
543,4	0,029
543,9	0,029
544,3	0,028
544,8	0,028
545,2	0,028
545,7	0,029
546,1	0,029
546,5	0,029
547	0,029
547,4	0,03
547,9	0,03
548,3	0,03
548,8	0,029
549,2	0,029
549,7	0,029
550,1	0,029
550,6	0,029
551	0,029
551,5	0,03
551,9	0,029
552,4	0,029
552,8	0,03
553,3	0,029
553,7	0,029
554,2	0,029
554,6	0,029
555,1	0,029
555,5	0,029
555,9	0,028
556,4	0,029
556,8	0,028
557,3	0,029
557,7	0,028
558,2	0,029
558,6	0,029
559,1	0,029
559,5	0,029
560	0,028
560,4	0,028
560,9	0,028
561,3	0,028
561,8	0,028
562,2	0,028
562,7	0,028
563,1	0,028
563,6	0,029
564	0,028
564,4	0,028
564,9	0,028
565,3	0,029
565,8	0,028
566,2	0,028
566,7	0,028
567,1	0,029
567,6	0,029
568	0,029
568,5	0,028
568,9	0,028
569,4	0,028
569,8	0,027
570,3	0,027
570,7	0,027
571,1	0,026
571,6	0,026
572	0,027
572,5	0,027
572,9	0,027
573,4	0,026
573,8	0,027
574,3	0,027
574,7	0,026
575,2	0,026
575,6	0,026
576,1	0,026
576,5	0,027
576,9	0,026
577,4	0,026
577,8	0,026
578,3	0,026
578,7	0,026
579,2	0,026
579,6	0,027
580,1	0,028
580,5	0,027
581	0,027
581,4	0,026
581,9	0,025
582,3	0,025
582,7	0,025
583,2	0,025
583,6	0,025
584,1	0,025
584,5	0,025
585	0,026
585,4	0,026
585,9	0,026
586,3	0,026
586,8	0,026
587,2	0,026
587,6	0,026
588,1	0,026
588,5	0,025
589	0,025
589,4	0,025
589,9	0,025
590,3	0,025
590,8	0,026
591,2	0,026
591,7	0,026
592,1	0,026
592,5	0,026
593	0,026
593,4	0,026
593,9	0,026
594,3	0,025
594,8	0,025
595,2	0,025
595,7	0,025
596,1	0,025
596,6	0,024
597	0,025
597,4	0,025
597,9	0,025
598,3	0,025
598,8	0,025
599,2	0,025
599,7	0,025
600,1	0,025
600,6	0,025
601	0,025
601,4	0,025
601,9	0,025
602,3	0,024
602,8	0,024
603,2	0,024
603,7	0,024
604,1	0,024
604,6	0,024
605	0,024
605,4	0,024
605,9	0,024
606,3	0,024
606,8	0,024
607,2	0,024
607,7	0,024
608,1	0,024
608,6	0,025
609	0,025
609,4	0,025
609,9	0,025
610,3	0,025
610,8	0,025
611,2	0,025
611,7	0,025
612,1	0,024
612,6	0,024
613	0,024
613,4	0,024
613,9	0,025
614,3	0,024
614,8	0,024
615,2	0,024
615,7	0,024
616,1	0,024
616,6	0,024
617	0,024
617,4	0,024
617,9	0,025
618,3	0,024
618,8	0,024
619,2	0,024
619,7	0,024
620,1	0,024
620,5	0,024
621	0,023
621,4	0,023
621,9	0,023
622,3	0,023
622,8	0,023
623,2	0,022
623,6	0,022
624,1	0,023
624,5	0,023
625	0,023
625,4	0,023
625,9	0,024
626,3	0,024
626,8	0,024
627,2	0,024
627,6	0,024
628,1	0,024
628,5	0,023
629	0,023
629,4	0,023
629,9	0,023
630,3	0,023
630,7	0,023
631,2	0,023
631,6	0,023
632,1	0,023
632,5	0,023
633	0,023
633,4	0,023
633,8	0,023
634,3	0,023
634,7	0,023
635,2	0,023
635,6	0,023
636,1	0,023
636,5	0,023
636,9	0,023
637,4	0,023
637,8	0,022
638,3	0,023
638,7	0,023
639,2	0,023
639,6	0,022
640	0,023
640,5	0,023
640,9	0,023
641,4	0,023
641,8	0,023
642,2	0,023
642,7	0,024
643,1	0,023
643,6	0,023
644	0,023
644,5	0,023
644,9	0,023
645,3	0,022
645,8	0,022
646,2	0,022
646,7	0,022
647,1	0,022
647,6	0,022
648	0,022
648,4	0,022
648,9	0,023
649,3	0,023
649,8	0,023
650,2	0,023
650,6	0,023
651,1	0,023
651,5	0,023
652	0,023
652,4	0,023
652,9	0,024
653,3	0,026
653,7	0,033
654,2	0,021
654,6	0,015
655,1	0,011
655,5	0,008
655,9	0,008
656,4	0,007
656,8	0,003
657,3	0,004
657,7	0,007
658,2	0,011
658,6	0,019
659	0,021
659,5	0,021
659,9	0,022
660,4	0,022
660,8	0,022
661,2	0,022
661,7	0,022
662,1	0,022
662,6	0,022
663	0,022
663,4	0,021
663,9	0,022
664,3	0,021
664,8	0,021
665,2	0,021
665,6	0,022
666,1	0,022
666,5	0,022
667	0,021
667,4	0,022
667,9	0,022
668,3	0,022
668,7	0,022
669,2	0,022
669,6	0,022
670,1	0,022
670,5	0,022
670,9	0,022
671,4	0,022
671,8	0,022
672,3	0,022
672,7	0,022
673,1	0,021
673,6	0,021
674	0,022
674,5	0,022
674,9	0,022
675,3	0,022
675,8	0,022
676,2	0,022
676,7	0,022
677,1	0,022
677,5	0,022
678	0,022
678,4	0,022
678,9	0,022
679,3	0,022
679,7	0,022
680,2	0,023
680,6	0,023
681,1	0,022
681,5	0,022
681,9	0,022
682,4	0,022
682,8	0,021
683,3	0,021
683,7	0,021
684,1	0,021
684,6	0,02
685	0,02
685,5	0,02
685,9	0,02
686,3	0,02
686,8	0,02
687,2	0,02
687,7	0,02
688,1	0,02
688,5	0,021
689	0,021
689,4	0,021
689,9	0,021
690,3	0,021
690,7	0,021
691,2	0,021
691,6	0,021
692	0,021
692,5	0,021
692,9	0,021
693,4	0,021
693,8	0,021
694,2	0,021
694,7	0,021
695,1	0,021
695,6	0,021
696	0,021
696,4	0,02
696,9	0,02
697,3	0,019
697,8	0,019
698,2	0,019
698,6	0,019
699,1	0,019
699,5	0,019
699,9	0,019
700,4	0,02
700,8	0,02
701,3	0,02
701,7	0,02
702,1	0,02
702,6	0,02
703	0,021
703,5	0,02
703,9	0,02
704,3	0,02
704,8	0,02
705,2	0,02
705,6	0,02
706,1	0,02
706,5	0,02
707	0,02
707,4	0,02
707,8	0,019
708,3	0,019
708,7	0,019
709,2	0,02
709,6	0,02
710	0,02
710,5	0,02
710,9	0,02
711,3	0,021
711,8	0,02
712,2	0,02
712,7	0,02
713,1	0,02
713,5	0,02
714	0,02
714,4	0,02
714,8	0,02
715,3	0,02
715,7	0,02
716,2	0,02
716,6	0,02
717	0,02
717,5	0,02
717,9	0,02
718,3	0,02
718,8	0,019
719,2	0,019
719,7	0,019
720,1	0,019
720,5	0,019
721	0,019
721,4	0,019
721,8	0,019
722,3	0,02
722,7	0,019
723,2	0,02
723,6	0,02
724	0,02
724,5	0,02
724,9	0,02
725,3	0,02
725,8	0,02
726,2	0,02
726,7	0,02
727,1	0,02
727,5	0,02
728	0,02
728,4	0,019
728,8	0,019
729,3	0,019
729,7	0,019
730,1	0,019
730,6	0,019
731	0,019
731,5	0,019
731,9	0,019
732,3	0,019
732,8	0,019
733,2	0,02
733,6	0,02
734,1	0,02
734,5	0,02
734,9	0,02
735,4	0,02
735,8	0,02
736,3	0,02
736,7	0,019
737,1	0,019
737,6	0,019
738	0,019
738,4	0,019
738,9	0,018
739,3	0,018
739,7	0,019
740,2	0,018
740,6	0,018
741,1	0,018
741,5	0,018
741,9	0,018
742,4	0,018
742,8	0,018
743,2	0,018
743,7	0,018
744,1	0,019
744,5	0,019
745	0,019
745,4	0,019
745,8	0,019
746,3	0,019
746,7	0,019
747,2	0,019
747,6	0,019
748	0,019
748,5	0,019
748,9	0,019
749,3	0,019
749,8	0,019
750,2	0,019
750,6	0,019
751,1	0,018
751,5	0,018
751,9	0,018
752,4	0,019
752,8	0,018
753,3	0,018
753,7	0,018
754,1	0,018
754,6	0,018
755	0,018
755,4	0,019
755,9	0,019
756,3	0,02
756,7	0,02
757,2	0,019
757,6	0,019
758	0,019
758,5	0,019
758,9	0,019
759,3	0,019
759,8	0,019
760,2	0,019
760,6	0,019
761,1	0,019
761,5	0,019
761,9	0,019
762,4	0,019
762,8	0,02
763,3	0,02
763,7	0,02
764,1	0,019
764,6	0,019
765	0,019
765,4	0,018
765,9	0,018
766,3	0,017
766,7	0,017
767,2	0,017
767,6	0,017
768	0,017
768,5	0,017
768,9	0,017
769,3	0,017
769,8	0,017
770,2	0,017
770,6	0,018
771,1	0,018
771,5	0,019
771,9	0,019
772,4	0,019
772,8	0,019
773,2	0,02
773,7	0,02
774,1	0,02
774,5	0,02
775	0,02
775,4	0,019
775,8	0,02
776,3	0,02
776,7	0,02
777,1	0,019
777,6	0,019
778	0,02
778,4	0,019
778,9	0,019
779,3	0,019
779,7	0,019
780,2	0,019
780,6	0,019
781	0,02
781,5	0,019
781,9	0,02
782,3	0,02
782,8	0,019
783,2	0,019
783,6	0,019
784,1	0,019
784,5	0,02
784,9	0,019
785,4	0,019
785,8	0,019
786,2	0,019
786,7	0,018
787,1	0,018
787,5	0,017
788	0,017
788,4	0,017
788,8	0,017
789,3	0,017
789,7	0,017
790,1	0,018
790,6	0,018
791	0,018
791,4	0,018
791,9	0,018
792,3	0,019
792,7	0,019
793,2	0,018
793,6	0,018
794	0,018
794,5	0,018
794,9	0,018
795,3	0,017
795,8	0,018
796,2	0,018
796,6	0,018
797,1	0,018
797,5	0,019
797,9	0,019
798,4	0,019
798,8	0,019
799,2	0,019
799,7	0,019
800,1	0,019
800,5	0,019
801	0,019
801,4	0,019
801,8	0,018
802,2	0,018
802,7	0,019
803,1	0,019
803,5	0,018
804	0,018
804,4	0,018
804,8	0,018
805,3	0,018
805,7	0,018
806,1	0,018
806,6	0,018
807	0,018
807,4	0,018
807,9	0,018
808,3	0,018
808,7	0,018
809,2	0,018
809,6	0,018
810	0,017
810,4	0,017
810,9	0,017
811,3	0,017
811,7	0,017
812,2	0,017
812,6	0,017
813	0,017
813,5	0,017
813,9	0,017
814,3	0,016
814,8	0,016
815,2	0,016
815,6	0,016
816,1	0,016
816,5	0,016
816,9	0,016
817,3	0,016
817,8	0,016
818,2	0,016
818,6	0,016
819,1	0,017
819,5	0,017
819,9	0,017
820,4	0,018
820,8	0,018
821,2	0,018
821,7	0,019
822,1	0,019
822,5	0,018
822,9	0,018
823,4	0,018
823,8	0,018
824,2	0,017
824,7	0,017
825,1	0,016
825,5	0,016
826	0,016
826,4	0,016
826,8	0,016
827,3	0,016
827,7	0,016
828,1	0,016
828,5	0,017
829	0,017
829,4	0,017
829,8	0,017
830,3	0,018
830,7	0,018
831,1	0,018
831,6	0,018
832	0,018
832,4	0,018
832,8	0,018
833,3	0,018
833,7	0,017
834,1	0,017
834,6	0,017
835	0,017
835,4	0,017
835,8	0,017
836,3	0,017
836,7	0,017
837,1	0,016
837,6	0,016
838	0,017
838,4	0,017
838,9	0,017
839,3	0,017
839,7	0,018
840,1	0,017
840,6	0,017
841	0,017
841,4	0,017
841,9	0,017
842,3	0,017
842,7	0,017
843,1	0,017
843,6	0,017
844	0,017
844,4	0,017
844,9	0,017
845,3	0,017
845,7	0,017
846,2	0,017
846,6	0,017
847	0,017
847,4	0,017
847,9	0,017
848,3	0,017
848,7	0,017
849,2	0,018
849,6	0,018
850	0,018
850,4	0,018
850,9	0,018
851,3	0,018
851,7	0,019
852,2	0,018
852,6	0,018
853	0,018
853,4	0,018
853,9	0,018
854,3	0,018
854,7	0,018
855,2	0,017
855,6	0,017
856	0,017
856,4	0,017
856,9	0,017
857,3	0,017
857,7	0,017
858,2	0,017
858,6	0,017
859	0,018
859,4	0,017
859,9	0,017
860,3	0,017
860,7	0,018
861,1	0,017
861,6	0,018
862	0,018
862,4	0,018
862,9	0,018
863,3	0,018
863,7	0,018
864,1	0,018
864,6	0,017
865	0,017
865,4	0,017
865,9	0,017
866,3	0,017
866,7	0,017
867,1	0,016
867,6	0,016
868	0,015
868,4	0,015
868,8	0,015
869,3	0,016
869,7	0,016
870,1	0,016
870,6	0,016
871	0,016
871,4	0,016
871,8	0,016
872,3	0,015
872,7	0,015
873,1	0,015
873,5	0,015
874	0,016
874,4	0,015
874,8	0,015
875,3	0,016
875,7	0,016
876,1	0,016
876,5	0,016
877	0,016
877,4	0,016
877,8	0,016
878,2	0,016
878,7	0,017
879,1	0,017
879,5	0,016
879,9	0,016
880,4	0,016
880,8	0,016
881,2	0,016
881,7	0,016
882,1	0,016
882,5	0,016
882,9	0,017
883,4	0,016
883,8	0,017
884,2	0,017
884,6	0,017
885,1	0,016
885,5	0,017
885,9	0,016
886,3	0,016
886,8	0,016
887,2	0,016
887,6	0,015
888	0,015
888,5	0,015
888,9	0,015
889,3	0,016
889,8	0,016
890,2	0,016
890,6	0,016
891	0,016
891,5	0,016
891,9	0,016
892,3	0,016
892,7	0,016
893,2	0,017
893,6	0,017
894	0,017
894,4	0,017
894,9	0,017
895,3	0,017
895,7	0,017
896,1	0,017
896,6	0,016
897	0,016
897,4	0,016
897,8	0,016
898,3	0,016
898,7	0,016
899,1	0,016
899,5	0,016
900	0,016
900,4	0,016
900,8	0,016
901,2	0,015
901,7	0,015
902,1	0,015
902,5	0,015
902,9	0,015
903,4	0,014
903,8	0,015
904,2	0,015
904,6	0,015
905,1	0,015
905,5	0,015
905,9	0,016
906,3	0,016
906,8	0,017
907,2	0,016
907,6	0,016
908	0,016
908,5	0,016
908,9	0,016
909,3	0,016
909,7	0,016
910,2	0,016
910,6	0,016
911	0,016
911,4	0,016
911,9	0,016
912,3	0,016
912,7	0,016
913,1	0,016
913,6	0,016
914	0,016
914,4	0,016
914,8	0,016
915,3	0,016
915,7	0,016
916,1	0,016
916,5	0,016
916,9	0,016
917,4	0,015
917,8	0,015
918,2	0,015
918,6	0,015
919,1	0,015
919,5	0,015
919,9	0,015
920,3	0,015
920,8	0,015
921,2	0,015
921,6	0,015
922	0,015
922,5	0,015
922,9	0,015
923,3	0,015
923,7	0,015
924,2	0,015
924,6	0,015
925	0,015
925,4	0,016
925,8	0,016
926,3	0,016
926,7	0,016
927,1	0,017
927,5	0,016
928	0,016
928,4	0,016
928,8	0,016
929,2	0,016
929,7	0,016
930,1	0,016
930,5	0,016
930,9	0,015
931,3	0,015
931,8	0,015
932,2	0,014
932,6	0,014
933	0,014
933,5	0,014
933,9	0,015
934,3	0,014
934,7	0,014
935,2	0,015
935,6	0,014
936	0,015
936,4	0,015
936,8	0,014
937,3	0,015
937,7	0,014
938,1	0,014
938,5	0,014
939	0,014
939,4	0,014
939,8	0,014
940,2	0,015
940,6	0,015
941,1	0,015
941,5	0,016
941,9	0,016
942,3	0,016
942,8	0,016
943,2	0,015
943,6	0,015
944	0,015
944,4	0,015
944,9	0,014
945,3	0,014
945,7	0,015
946,1	0,015
946,6	0,015
947	0,016
947,4	0,016
947,8	0,017
948,2	0,017
948,7	0,017
949,1	0,016
949,5	0,016
949,9	0,016
950,3	0,016
950,8	0,016
951,2	0,015
951,6	0,016
952	0,017
952,5	0,017
952,9	0,017
953,3	0,017
953,7	0,017
954,1	0,018
954,6	0,017
955	0,017
955,4	0,017
955,8	0,017
956,2	0,017
956,7	0,016
957,1	0,016
957,5	0,016
957,9	0,016
958,3	0,016
958,8	0,015
959,2	0,015
959,6	0,015
960	0,015
960,5	0,015
960,9	0,015
961,3	0,015
961,7	0,015
962,1	0,016
962,6	0,016
963	0,016
963,4	0,016
963,8	0,016
964,2	0,016
964,7	0,015
965,1	0,015
965,5	0,015
965,9	0,015
966,3	0,016
966,8	0,016
967,2	0,016
967,6	0,016
968	0,016
968,4	0,016
968,9	0,016
969,3	0,016
969,7	0,016
970,1	0,016
970,5	0,016
971	0,017
971,4	0,017
971,8	0,017
972,2	0,017
972,6	0,018
973,1	0,018
973,5	0,018
973,9	0,018
974,3	0,018
974,7	0,017
975,2	0,017
975,6	0,017
976	0,017
976,4	0,017
976,8	0,017
977,3	0,017
977,7	0,017
978,1	0,016
978,5	0,016
978,9	0,015
979,4	0,015
979,8	0,015
980,2	0,015
980,6	0,015
981	0,016
981,5	0,015
981,9	0,016
982,3	0,016
982,7	0,016
983,1	0,016
983,6	0,016
984	0,015
984,4	0,016
984,8	0,016
985,2	0,016
985,6	0,016
986,1	0,016
986,5	0,017
986,9	0,018
987,3	0,018
987,7	0,018
988,2	0,018
988,6	0,018
989	0,017
989,4	0,016
989,8	0,016
990,3	0,016
990,7	0,016
991,1	0,015
991,5	0,015
991,9	0,015
992,3	0,016
992,8	0,016
993,2	0,016
993,6	0,016
994	0,016
994,4	0,016
994,9	0,016
995,3	0,016
995,7	0,016
996,1	0,016
996,5	0,015
996,9	0,016
997,4	0,015
997,8	0,016
998,2	0,015
998,6	0,015
999	0,015
999,5	0,014
999,9	0,013
1000,3	0,013
1000,7	0,013
1001,1	0,013
1001,5	0,014
1002	0,014
1002,4	0,015
1002,8	0,015
1003,2	0,015
1003,6	0,015
1004	0,015
1004,5	0,015
1004,9	0,015
1005,3	0,015
1005,7	0,015
1006,1	0,015
1006,6	0,015
1007	0,016
1007,4	0,016
1007,8	0,016
1008,2	0,015
1008,6	0,015
1009,1	0,016
1009,5	0,016
1009,9	0,015
1010,3	0,015
1010,7	0,015
1011,1	0,016
1011,6	0,017
1012	0,016
1012,4	0,016
1012,8	0,016
1013,2	0,017
1013,6	0,016
1014,1	0,016
1014,5	0,016
1014,9	0,016
1015,3	0,017
1015,7	0,016
1016,1	0,016
1016,6	0,016
1017	0,016
1017,4	0,016
1017,8	0,016
1018,2	0,016
1018,6	0,016
1019,1	0,016
1019,5	0,016
1019,9	0,016
1020,3	0,016
1020,7	0,016
1021,1	0,016
1021,6	0,016
1022	0,015
1022,4	0,016
1022,8	0,016
1023,2	0,015
1023,6	0,015
1024,1	0,016
1024,5	0,016
1024,9	0,016
1025,3	0,016
1025,7	0,016
1026,1	0,016
1026,6	0,016
1027	0,015
1027,4	0,015
1027,8	0,015
1028,2	0,015
1028,6	0,016
1029	0,016
1029,5	0,016
1029,9	0,016
1030,3	0,016
1030,7	0,016
1031,1	0,016
1031,5	0,016
1032	0,016
1032,4	0,016
1032,8	0,016
1033,2	0,017
1033,6	0,017
1034	0,017
1034,4	0,017
1034,9	0,017
1035,3	0,017
1035,7	0,018
1036,1	0,017
1036,5	0,017
1036,9	0,017
1037,4	0,017
1037,8	0,018
1038,2	0,018
1038,6	0,018
1039	0,018
1039,4	0,018
1039,8	0,019
1040,3	0,019
1040,7	0,019
1041,1	0,019
1041,5	0,019
1041,9	0,019
1042,3	0,019
1042,7	0,019
1043,2	0,018
1043,6	0,018
1044	0,018
1044,4	0,018
1044,8	0,018
1045,2	0,019
1045,6	0,02
1046,1	0,019
1046,5	0,019
1046,9	0,02
1047,3	0,019
1047,7	0,018
1048,1	0,018
1048,5	0,018
1049	0,018
1049,4	0,019
1049,8	0,019
1050,2	0,02
1050,6	0,02
1051	0,019
1051,4	0,019
1051,9	0,019
1052,3	0,02
1052,7	0,019
1053,1	0,019
1053,5	0,019
1053,9	0,019
1054,3	0,019
1054,8	0,019
1055,2	0,018
1055,6	0,018
1056	0,018
1056,4	0,018
1056,8	0,019
1057,2	0,019
1057,6	0,019
1058,1	0,02
1058,5	0,02
1058,9	0,02
1059,3	0,021
1059,7	0,021
1060,1	0,021
1060,5	0,021
1061	0,021
1061,4	0,021
1061,8	0,021
1062,2	0,02
1062,6	0,02
1063	0,02
1063,4	0,02
1063,8	0,02
1064,3	0,02
1064,7	0,02
1065,1	0,02
1065,5	0,02
1065,9	0,02
1066,3	0,021
1066,7	0,021
1067,1	0,02
1067,6	0,019
1068	0,02
1068,4	0,02
1068,8	0,02
1069,2	0,019
1069,6	0,019
1070	0,02
1070,4	0,02
1070,9	0,021
1071,3	0,021
1071,7	0,021
1072,1	0,021
1072,5	0,022
1072,9	0,02
1073,3	0,021
1073,7	0,021
1074,2	0,021
1074,6	0,02
1075	0,021
1075,4	0,02
1075,8	0,022
1076,2	0,021
1076,6	0,02
1077	0,02
1077,5	0,021
1077,9	0,02
1078,3	0,021
1078,7	0,022
1079,1	0,022
1079,5	0,022
1079,9	0,022
1080,3	0,022
1080,7	0,021
1081,2	0,021
1081,6	0,02
1082	0,022
1082,4	0,022
1082,8	0,022
1083,2	0,022
1083,6	0,023
1084	0,023
1084,5	0,023
1084,9	0,022
1085,3	0,021
1085,7	0,021
1086,1	0,021
1086,5	0,023
1086,9	0,024
1087,3	0,026
1087,7	0,024
1088,2	0,025
1088,6	0,026
1089	0,026
1089,4	0,028
1089,8	0,026
1090,2	0,024
1090,6	0,028
1091	0,029
1091,4	0,03
1091,9	0,031
1092,3	0,03
1092,7	0,029
1093,1	0,035
1093,5	0,038
1093,9	0,039
1094,3	0,035
1094,7	0,039
1095,1	0,04
1095,5	0,043
1096	0,039
1096,4	0,04
1096,8	0,041
1097,2	0,045
1097,6	0,039
1098	0,036
1098,4	0,042
1098,8	0,042
1099,2	0,044
1099,6	0,044
1100,1	0,048
1100,5	0,054
1100,9	0,061
1101,3	0,062
1101,7	0,07
1102,1	0,068
1102,5	0,068
1102,9	0,081
1103,3	0,078
1103,7	0,079
1104,2	0,082
1104,6	0,078
1105	0,082
1105,4	0,085
1105,8	0,077
1106,2	0,084
1106,6	0,101
1107	0,092
1107,4	0,106
1107,8	0,118
1108,3	-0,747
