Data from Absorbance_153.txt Node
Date: Fri Nov 13 19:49:11 MSK 2020
User: vat
Spectrometer: MAYP114033
Trigger mode: 0
Integration Time (sec): 8,000000E-3
Scans to average: 10
Electric dark correction enabled: true
Nonlinearity correction enabled: false
Boxcar width: 3
XAxis mode: Wavelengths
Number of Pixels in Spectrum: 2068
>>>>>Begin Spectral Data<<<<<
199,4	-0
199,9	0,143
200,4	0,083
200,8	0,071
201,3	0,047
201,8	0,042
202,2	0,051
202,7	0,057
203,2	0,053
203,6	0,06
204,1	0,064
204,6	0,062
205	0,054
205,5	0,047
206	0,046
206,4	0,04
206,9	0,04
207,4	0,032
207,8	0,026
208,3	0,021
208,8	0,024
209,2	0,03
209,7	0,023
210,2	-0
210,6	-0,005
211,1	0,003
211,5	0,008
212	-0,001
212,5	-0,004
212,9	0,019
213,4	0,024
213,9	0,023
214,3	0,025
214,8	0,038
215,3	0,044
215,7	0,044
216,2	0,03
216,7	0,027
217,1	0,038
217,6	0,027
218,1	0,017
218,5	0,01
219	0,002
219,5	0,012
219,9	0,025
220,4	0,025
220,9	0,044
221,3	0,043
221,8	0,044
222,3	0,061
222,7	0,053
223,2	0,064
223,6	0,062
224,1	0,059
224,6	0,072
225	0,089
225,5	0,077
226	0,084
226,4	0,078
226,9	0,077
227,4	0,072
227,8	0,063
228,3	0,06
228,8	0,059
229,2	0,062
229,7	0,069
230,2	0,064
230,6	0,066
231,1	0,085
231,5	0,072
232	0,063
232,5	0,06
232,9	0,058
233,4	0,067
233,9	0,061
234,3	0,047
234,8	0,056
235,3	0,056
235,7	0,058
236,2	0,066
236,7	0,064
237,1	0,079
237,6	0,094
238,1	0,096
238,5	0,098
239	0,11
239,4	0,11
239,9	0,125
240,4	0,122
240,8	0,116
241,3	0,124
241,8	0,14
242,2	0,134
242,7	0,134
243,2	0,128
243,6	0,124
244,1	0,124
244,6	0,125
245	0,124
245,5	0,138
245,9	0,148
246,4	0,16
246,9	0,178
247,3	0,186
247,8	0,198
248,3	0,211
248,7	0,214
249,2	0,218
249,7	0,223
250,1	0,23
250,6	0,234
251	0,236
251,5	0,241
252	0,246
252,4	0,251
252,9	0,257
253,4	0,261
253,8	0,267
254,3	0,275
254,8	0,281
255,2	0,286
255,7	0,294
256,1	0,299
256,6	0,306
257,1	0,313
257,5	0,32
258	0,329
258,5	0,338
258,9	0,346
259,4	0,355
259,9	0,362
260,3	0,371
260,8	0,381
261,2	0,391
261,7	0,401
262,2	0,412
262,6	0,422
263,1	0,434
263,6	0,446
264	0,457
264,5	0,466
264,9	0,477
265,4	0,488
265,9	0,5
266,3	0,513
266,8	0,524
267,3	0,535
267,7	0,548
268,2	0,561
268,7	0,573
269,1	0,585
269,6	0,597
270	0,608
270,5	0,62
271	0,631
271,4	0,642
271,9	0,652
272,4	0,663
272,8	0,674
273,3	0,684
273,7	0,694
274,2	0,704
274,7	0,713
275,1	0,723
275,6	0,732
276,1	0,739
276,5	0,749
277	0,756
277,4	0,765
277,9	0,774
278,4	0,781
278,8	0,787
279,3	0,793
279,8	0,797
280,2	0,803
280,7	0,806
281,1	0,807
281,6	0,808
282,1	0,811
282,5	0,811
283	0,81
283,4	0,809
283,9	0,808
284,4	0,805
284,8	0,803
285,3	0,799
285,8	0,795
286,2	0,791
286,7	0,785
287,1	0,778
287,6	0,771
288,1	0,764
288,5	0,755
289	0,746
289,5	0,736
289,9	0,726
290,4	0,715
290,8	0,703
291,3	0,691
291,8	0,677
292,2	0,663
292,7	0,649
293,1	0,635
293,6	0,62
294,1	0,606
294,5	0,589
295	0,574
295,5	0,559
295,9	0,543
296,4	0,527
296,8	0,51
297,3	0,493
297,8	0,477
298,2	0,46
298,7	0,443
299,1	0,427
299,6	0,411
300,1	0,396
300,5	0,381
301	0,365
301,5	0,35
301,9	0,336
302,4	0,321
302,8	0,306
303,3	0,293
303,8	0,28
304,2	0,267
304,7	0,255
305,1	0,243
305,6	0,232
306,1	0,221
306,5	0,211
307	0,201
307,4	0,191
307,9	0,182
308,4	0,174
308,8	0,166
309,3	0,158
309,8	0,15
310,2	0,144
310,7	0,137
311,1	0,13
311,6	0,124
312,1	0,118
312,5	0,112
313	0,108
313,4	0,103
313,9	0,099
314,4	0,094
314,8	0,09
315,3	0,086
315,7	0,083
316,2	0,08
316,7	0,076
317,1	0,074
317,6	0,072
318	0,069
318,5	0,067
319	0,065
319,4	0,063
319,9	0,061
320,3	0,059
320,8	0,057
321,3	0,056
321,7	0,054
322,2	0,053
322,6	0,052
323,1	0,051
323,6	0,05
324	0,049
324,5	0,048
324,9	0,048
325,4	0,047
325,9	0,046
326,3	0,045
326,8	0,045
327,2	0,044
327,7	0,044
328,2	0,044
328,6	0,043
329,1	0,042
329,5	0,042
330	0,04
330,5	0,04
330,9	0,04
331,4	0,039
331,8	0,039
332,3	0,038
332,8	0,038
333,2	0,038
333,7	0,037
334,1	0,037
334,6	0,036
335,1	0,036
335,5	0,035
336	0,035
336,4	0,035
336,9	0,035
337,4	0,035
337,8	0,035
338,3	0,034
338,7	0,034
339,2	0,034
339,7	0,033
340,1	0,033
340,6	0,033
341	0,033
341,5	0,032
342	0,032
342,4	0,031
342,9	0,032
343,3	0,032
343,8	0,031
344,2	0,031
344,7	0,031
345,2	0,031
345,6	0,031
346,1	0,031
346,5	0,031
347	0,031
347,5	0,03
347,9	0,031
348,4	0,03
348,8	0,03
349,3	0,029
349,8	0,029
350,2	0,029
350,7	0,028
351,1	0,028
351,6	0,027
352	0,027
352,5	0,027
353	0,027
353,4	0,026
353,9	0,026
354,3	0,026
354,8	0,026
355,3	0,026
355,7	0,025
356,2	0,025
356,6	0,025
357,1	0,026
357,5	0,026
358	0,025
358,5	0,025
358,9	0,025
359,4	0,025
359,8	0,025
360,3	0,024
360,8	0,024
361,2	0,024
361,7	0,025
362,1	0,024
362,6	0,024
363	0,024
363,5	0,024
364	0,024
364,4	0,023
364,9	0,023
365,3	0,023
365,8	0,023
366,3	0,023
366,7	0,023
367,2	0,023
367,6	0,023
368,1	0,023
368,5	0,022
369	0,021
369,5	0,02
369,9	0,02
370,4	0,02
370,8	0,02
371,3	0,02
371,7	0,02
372,2	0,02
372,7	0,02
373,1	0,02
373,6	0,02
374	0,02
374,5	0,02
374,9	0,02
375,4	0,02
375,9	0,02
376,3	0,02
376,8	0,02
377,2	0,02
377,7	0,02
378,2	0,02
378,6	0,02
379,1	0,019
379,5	0,019
380	0,018
380,4	0,018
380,9	0,018
381,4	0,017
381,8	0,017
382,3	0,017
382,7	0,017
383,2	0,017
383,6	0,017
384,1	0,017
384,6	0,017
385	0,017
385,5	0,017
385,9	0,017
386,4	0,017
386,8	0,017
387,3	0,016
387,7	0,017
388,2	0,018
388,7	0,018
389,1	0,018
389,6	0,018
390	0,018
390,5	0,017
390,9	0,017
391,4	0,016
391,9	0,017
392,3	0,017
392,8	0,017
393,2	0,016
393,7	0,016
394,1	0,016
394,6	0,016
395,1	0,015
395,5	0,015
396	0,015
396,4	0,015
396,9	0,015
397,3	0,015
397,8	0,015
398,2	0,015
398,7	0,015
399,2	0,015
399,6	0,015
400,1	0,015
400,5	0,015
401	0,015
401,4	0,015
401,9	0,014
402,4	0,014
402,8	0,014
403,3	0,014
403,7	0,013
404,2	0,013
404,6	0,013
405,1	0,014
405,5	0,014
406	0,013
406,5	0,013
406,9	0,013
407,4	0,013
407,8	0,013
408,3	0,012
408,7	0,012
409,2	0,012
409,6	0,012
410,1	0,012
410,6	0,012
411	0,012
411,5	0,012
411,9	0,012
412,4	0,012
412,8	0,012
413,3	0,013
413,7	0,012
414,2	0,013
414,7	0,013
415,1	0,013
415,6	0,013
416	0,013
416,5	0,013
416,9	0,013
417,4	0,013
417,8	0,013
418,3	0,013
418,8	0,013
419,2	0,013
419,7	0,012
420,1	0,012
420,6	0,012
421	0,012
421,5	0,012
421,9	0,012
422,4	0,013
422,8	0,013
423,3	0,013
423,8	0,013
424,2	0,012
424,7	0,012
425,1	0,012
425,6	0,012
426	0,011
426,5	0,011
426,9	0,011
427,4	0,011
427,9	0,011
428,3	0,011
428,8	0,011
429,2	0,011
429,7	0,011
430,1	0,011
430,6	0,011
431	0,011
431,5	0,011
431,9	0,011
432,4	0,011
432,8	0,011
433,3	0,011
433,8	0,011
434,2	0,011
434,7	0,011
435,1	0,011
435,6	0,011
436	0,011
436,5	0,01
436,9	0,01
437,4	0,01
437,8	0,009
438,3	0,01
438,8	0,009
439,2	0,01
439,7	0,01
440,1	0,01
440,6	0,01
441	0,01
441,5	0,01
441,9	0,01
442,4	0,01
442,8	0,01
443,3	0,011
443,7	0,011
444,2	0,011
444,7	0,011
445,1	0,01
445,6	0,011
446	0,011
446,5	0,01
446,9	0,01
447,4	0,01
447,8	0,01
448,3	0,01
448,7	0,009
449,2	0,009
449,6	0,009
450,1	0,009
450,6	0,009
451	0,009
451,5	0,009
451,9	0,009
452,4	0,009
452,8	0,009
453,3	0,01
453,7	0,009
454,2	0,009
454,6	0,009
455,1	0,009
455,5	0,009
456	0,009
456,4	0,009
456,9	0,009
457,3	0,009
457,8	0,009
458,3	0,008
458,7	0,008
459,2	0,008
459,6	0,008
460,1	0,008
460,5	0,009
461	0,009
461,4	0,009
461,9	0,009
462,3	0,009
462,8	0,009
463,2	0,009
463,7	0,009
464,1	0,009
464,6	0,009
465	0,009
465,5	0,009
466	0,009
466,4	0,008
466,9	0,008
467,3	0,008
467,8	0,008
468,2	0,008
468,7	0,008
469,1	0,008
469,6	0,009
470	0,008
470,5	0,009
470,9	0,008
471,4	0,009
471,8	0,009
472,3	0,009
472,7	0,009
473,2	0,009
473,6	0,009
474,1	0,009
474,5	0,009
475	0,008
475,4	0,008
475,9	0,008
476,4	0,008
476,8	0,007
477,3	0,007
477,7	0,007
478,2	0,008
478,6	0,008
479,1	0,008
479,5	0,008
480	0,008
480,4	0,008
480,9	0,009
481,3	0,009
481,8	0,008
482,2	0,009
482,7	0,008
483,1	0,008
483,6	0,008
484	0,008
484,5	0,007
484,9	0,007
485,4	0,007
485,8	0,008
486,3	0,007
486,7	0,008
487,2	0,008
487,6	0,008
488,1	0,008
488,5	0,008
489	0,007
489,4	0,007
489,9	0,007
490,4	0,007
490,8	0,007
491,3	0,007
491,7	0,007
492,2	0,007
492,6	0,007
493,1	0,007
493,5	0,008
494	0,008
494,4	0,008
494,9	0,007
495,3	0,007
495,8	0,007
496,2	0,007
496,7	0,007
497,1	0,007
497,6	0,007
498	0,008
498,5	0,008
498,9	0,007
499,4	0,007
499,8	0,007
500,3	0,007
500,7	0,007
501,2	0,006
501,6	0,006
502,1	0,007
502,5	0,007
503	0,007
503,4	0,007
503,9	0,007
504,3	0,008
504,8	0,008
505,2	0,008
505,7	0,008
506,1	0,008
506,6	0,007
507	0,007
507,5	0,006
507,9	0,006
508,4	0,006
508,8	0,006
509,3	0,006
509,7	0,007
510,2	0,007
510,6	0,007
511,1	0,007
511,5	0,007
512	0,007
512,4	0,007
512,9	0,007
513,3	0,006
513,8	0,006
514,2	0,006
514,7	0,007
515,1	0,007
515,6	0,006
516	0,006
516,5	0,006
516,9	0,006
517,4	0,006
517,8	0,006
518,3	0,006
518,7	0,006
519,2	0,006
519,6	0,006
520,1	0,006
520,5	0,005
521	0,005
521,4	0,006
521,9	0,006
522,3	0,006
522,8	0,006
523,2	0,006
523,7	0,006
524,1	0,006
524,6	0,006
525	0,006
525,5	0,006
525,9	0,006
526,4	0,006
526,8	0,006
527,3	0,006
527,7	0,006
528,2	0,006
528,6	0,006
529,1	0,006
529,5	0,006
530	0,005
530,4	0,005
530,9	0,005
531,3	0,005
531,8	0,005
532,2	0,006
532,6	0,005
533,1	0,006
533,5	0,006
534	0,006
534,4	0,006
534,9	0,006
535,3	0,006
535,8	0,007
536,2	0,006
536,7	0,006
537,1	0,005
537,6	0,006
538	0,006
538,5	0,006
538,9	0,006
539,4	0,006
539,8	0,006
540,3	0,006
540,7	0,006
541,2	0,005
541,6	0,006
542,1	0,005
542,5	0,005
543	0,005
543,4	0,004
543,9	0,005
544,3	0,005
544,8	0,005
545,2	0,005
545,7	0,005
546,1	0,005
546,5	0,005
547	0,005
547,4	0,005
547,9	0,005
548,3	0,005
548,8	0,005
549,2	0,005
549,7	0,006
550,1	0,005
550,6	0,005
551	0,006
551,5	0,006
551,9	0,006
552,4	0,006
552,8	0,005
553,3	0,005
553,7	0,005
554,2	0,005
554,6	0,005
555,1	0,005
555,5	0,004
555,9	0,005
556,4	0,005
556,8	0,005
557,3	0,005
557,7	0,006
558,2	0,006
558,6	0,006
559,1	0,006
559,5	0,005
560	0,005
560,4	0,005
560,9	0,004
561,3	0,004
561,8	0,004
562,2	0,004
562,7	0,004
563,1	0,004
563,6	0,004
564	0,004
564,4	0,004
564,9	0,004
565,3	0,004
565,8	0,003
566,2	0,004
566,7	0,004
567,1	0,004
567,6	0,004
568	0,004
568,5	0,004
568,9	0,004
569,4	0,003
569,8	0,003
570,3	0,003
570,7	0,003
571,1	0,003
571,6	0,003
572	0,003
572,5	0,004
572,9	0,004
573,4	0,003
573,8	0,003
574,3	0,003
574,7	0,003
575,2	0,003
575,6	0,003
576,1	0,003
576,5	0,003
576,9	0,003
577,4	0,003
577,8	0,003
578,3	0,003
578,7	0,003
579,2	0,003
579,6	0,003
580,1	0,003
580,5	0,003
581	0,003
581,4	0,003
581,9	0,003
582,3	0,003
582,7	0,003
583,2	0,003
583,6	0,003
584,1	0,003
584,5	0,003
585	0,003
585,4	0,003
585,9	0,003
586,3	0,003
586,8	0,003
587,2	0,003
587,6	0,003
588,1	0,003
588,5	0,003
589	0,003
589,4	0,004
589,9	0,004
590,3	0,004
590,8	0,004
591,2	0,003
591,7	0,003
592,1	0,003
592,5	0,003
593	0,003
593,4	0,003
593,9	0,003
594,3	0,003
594,8	0,003
595,2	0,003
595,7	0,003
596,1	0,004
596,6	0,003
597	0,004
597,4	0,003
597,9	0,004
598,3	0,003
598,8	0,003
599,2	0,003
599,7	0,003
600,1	0,003
600,6	0,003
601	0,003
601,4	0,002
601,9	0,002
602,3	0,003
602,8	0,003
603,2	0,003
603,7	0,003
604,1	0,003
604,6	0,003
605	0,003
605,4	0,003
605,9	0,003
606,3	0,003
606,8	0,003
607,2	0,003
607,7	0,003
608,1	0,003
608,6	0,003
609	0,003
609,4	0,003
609,9	0,003
610,3	0,002
610,8	0,002
611,2	0,002
611,7	0,003
612,1	0,003
612,6	0,003
613	0,003
613,4	0,003
613,9	0,003
614,3	0,003
614,8	0,003
615,2	0,003
615,7	0,003
616,1	0,003
616,6	0,003
617	0,003
617,4	0,004
617,9	0,004
618,3	0,004
618,8	0,004
619,2	0,004
619,7	0,004
620,1	0,004
620,5	0,003
621	0,004
621,4	0,004
621,9	0,004
622,3	0,004
622,8	0,004
623,2	0,004
623,6	0,004
624,1	0,004
624,5	0,003
625	0,003
625,4	0,004
625,9	0,004
626,3	0,003
626,8	0,003
627,2	0,003
627,6	0,004
628,1	0,003
628,5	0,003
629	0,003
629,4	0,003
629,9	0,004
630,3	0,003
630,7	0,003
631,2	0,003
631,6	0,003
632,1	0,003
632,5	0,004
633	0,003
633,4	0,004
633,8	0,004
634,3	0,004
634,7	0,005
635,2	0,005
635,6	0,004
636,1	0,004
636,5	0,004
636,9	0,003
637,4	0,003
637,8	0,003
638,3	0,003
638,7	0,003
639,2	0,003
639,6	0,003
640	0,003
640,5	0,004
640,9	0,004
641,4	0,004
641,8	0,004
642,2	0,005
642,7	0,005
643,1	0,005
643,6	0,005
644	0,005
644,5	0,005
644,9	0,005
645,3	0,005
645,8	0,005
646,2	0,004
646,7	0,004
647,1	0,004
647,6	0,004
648	0,004
648,4	0,004
648,9	0,004
649,3	0,004
649,8	0,004
650,2	0,004
650,6	0,004
651,1	0,004
651,5	0,003
652	0,004
652,4	0,003
652,9	0,003
653,3	0,002
653,7	0,001
654,2	0
654,6	-0
655,1	-0
655,5	0
655,9	0,001
656,4	0,001
656,8	0,001
657,3	0,002
657,7	0,003
658,2	0,004
658,6	0,004
659	0,004
659,5	0,004
659,9	0,003
660,4	0,003
660,8	0,003
661,2	0,004
661,7	0,003
662,1	0,003
662,6	0,003
663	0,003
663,4	0,003
663,9	0,003
664,3	0,003
664,8	0,004
665,2	0,004
665,6	0,004
666,1	0,004
666,5	0,004
667	0,003
667,4	0,003
667,9	0,003
668,3	0,003
668,7	0,003
669,2	0,004
669,6	0,003
670,1	0,004
670,5	0,004
670,9	0,004
671,4	0,004
671,8	0,004
672,3	0,004
672,7	0,003
673,1	0,003
673,6	0,003
674	0,003
674,5	0,003
674,9	0,002
675,3	0,003
675,8	0,003
676,2	0,003
676,7	0,003
677,1	0,003
677,5	0,004
678	0,004
678,4	0,004
678,9	0,004
679,3	0,004
679,7	0,004
680,2	0,004
680,6	0,004
681,1	0,004
681,5	0,004
681,9	0,004
682,4	0,004
682,8	0,004
683,3	0,004
683,7	0,004
684,1	0,004
684,6	0,003
685	0,003
685,5	0,003
685,9	0,003
686,3	0,003
686,8	0,003
687,2	0,003
687,7	0,003
688,1	0,003
688,5	0,003
689	0,003
689,4	0,003
689,9	0,003
690,3	0,004
690,7	0,004
691,2	0,003
691,6	0,003
692	0,003
692,5	0,003
692,9	0,003
693,4	0,003
693,8	0,003
694,2	0,003
694,7	0,003
695,1	0,003
695,6	0,003
696	0,003
696,4	0,004
696,9	0,003
697,3	0,003
697,8	0,003
698,2	0,003
698,6	0,003
699,1	0,003
699,5	0,003
699,9	0,003
700,4	0,003
700,8	0,003
701,3	0,002
701,7	0,002
702,1	0,002
702,6	0,002
703	0,002
703,5	0,002
703,9	0,003
704,3	0,003
704,8	0,003
705,2	0,003
705,6	0,003
706,1	0,003
706,5	0,003
707	0,003
707,4	0,003
707,8	0,003
708,3	0,003
708,7	0,003
709,2	0,003
709,6	0,002
710	0,002
710,5	0,003
710,9	0,003
711,3	0,003
711,8	0,003
712,2	0,003
712,7	0,003
713,1	0,003
713,5	0,003
714	0,003
714,4	0,003
714,8	0,003
715,3	0,003
715,7	0,003
716,2	0,003
716,6	0,003
717	0,003
717,5	0,003
717,9	0,003
718,3	0,003
718,8	0,003
719,2	0,003
719,7	0,003
720,1	0,004
720,5	0,004
721	0,004
721,4	0,003
721,8	0,004
722,3	0,004
722,7	0,003
723,2	0,003
723,6	0,003
724	0,003
724,5	0,003
724,9	0,003
725,3	0,002
725,8	0,002
726,2	0,003
726,7	0,003
727,1	0,003
727,5	0,003
728	0,003
728,4	0,003
728,8	0,003
729,3	0,003
729,7	0,003
730,1	0,003
730,6	0,003
731	0,004
731,5	0,004
731,9	0,004
732,3	0,004
732,8	0,003
733,2	0,003
733,6	0,003
734,1	0,002
734,5	0,002
734,9	0,002
735,4	0,002
735,8	0,003
736,3	0,003
736,7	0,003
737,1	0,003
737,6	0,003
738	0,003
738,4	0,003
738,9	0,003
739,3	0,003
739,7	0,003
740,2	0,003
740,6	0,003
741,1	0,003
741,5	0,003
741,9	0,003
742,4	0,003
742,8	0,003
743,2	0,003
743,7	0,003
744,1	0,003
744,5	0,003
745	0,003
745,4	0,003
745,8	0,002
746,3	0,002
746,7	0,002
747,2	0,002
747,6	0,002
748	0,002
748,5	0,002
748,9	0,002
749,3	0,003
749,8	0,003
750,2	0,003
750,6	0,003
751,1	0,003
751,5	0,003
751,9	0,003
752,4	0,003
752,8	0,003
753,3	0,003
753,7	0,003
754,1	0,003
754,6	0,003
755	0,003
755,4	0,003
755,9	0,003
756,3	0,003
756,7	0,003
757,2	0,003
757,6	0,003
758	0,003
758,5	0,003
758,9	0,003
759,3	0,003
759,8	0,002
760,2	0,002
760,6	0,002
761,1	0,002
761,5	0,002
761,9	0,002
762,4	0,002
762,8	0,003
763,3	0,003
763,7	0,002
764,1	0,002
764,6	0,002
765	0,003
765,4	0,003
765,9	0,002
766,3	0,003
766,7	0,003
767,2	0,003
767,6	0,002
768	0,002
768,5	0,002
768,9	0,003
769,3	0,002
769,8	0,003
770,2	0,002
770,6	0,002
771,1	0,002
771,5	0,002
771,9	0,002
772,4	0,002
772,8	0,002
773,2	0,002
773,7	0,002
774,1	0,002
774,5	0,002
775	0,002
775,4	0,002
775,8	0,001
776,3	0,001
776,7	0,001
777,1	0,001
777,6	0,001
778	0,001
778,4	0,001
778,9	0,002
779,3	0,002
779,7	0,002
780,2	0,002
780,6	0,003
781	0,003
781,5	0,003
781,9	0,003
782,3	0,003
782,8	0,002
783,2	0,002
783,6	0,002
784,1	0,002
784,5	0,002
784,9	0,002
785,4	0,002
785,8	0,002
786,2	0,002
786,7	0,002
787,1	0,002
787,5	0,002
788	0,003
788,4	0,003
788,8	0,003
789,3	0,003
789,7	0,003
790,1	0,003
790,6	0,003
791	0,003
791,4	0,003
791,9	0,003
792,3	0,002
792,7	0,002
793,2	0,003
793,6	0,002
794	0,003
794,5	0,003
794,9	0,003
795,3	0,003
795,8	0,003
796,2	0,003
796,6	0,003
797,1	0,003
797,5	0,003
797,9	0,003
798,4	0,003
798,8	0,002
799,2	0,003
799,7	0,003
800,1	0,003
800,5	0,003
801	0,003
801,4	0,003
801,8	0,003
802,2	0,003
802,7	0,004
803,1	0,004
803,5	0,004
804	0,003
804,4	0,004
804,8	0,004
805,3	0,003
805,7	0,003
806,1	0,003
806,6	0,003
807	0,003
807,4	0,003
807,9	0,003
808,3	0,003
808,7	0,004
809,2	0,004
809,6	0,004
810	0,003
810,4	0,004
810,9	0,003
811,3	0,003
811,7	0,003
812,2	0,003
812,6	0,002
813	0,002
813,5	0,001
813,9	0,001
814,3	0,002
814,8	0,001
815,2	0,002
815,6	0,002
816,1	0,002
816,5	0,002
816,9	0,002
817,3	0,002
817,8	0,002
818,2	0,002
818,6	0,003
819,1	0,003
819,5	0,003
819,9	0,003
820,4	0,003
820,8	0,003
821,2	0,002
821,7	0,002
822,1	0,002
822,5	0,002
822,9	0,003
823,4	0,003
823,8	0,003
824,2	0,003
824,7	0,003
825,1	0,003
825,5	0,003
826	0,003
826,4	0,003
826,8	0,003
827,3	0,003
827,7	0,003
828,1	0,003
828,5	0,003
829	0,003
829,4	0,002
829,8	0,003
830,3	0,002
830,7	0,002
831,1	0,003
831,6	0,003
832	0,003
832,4	0,003
832,8	0,003
833,3	0,003
833,7	0,004
834,1	0,004
834,6	0,004
835	0,004
835,4	0,004
835,8	0,004
836,3	0,004
836,7	0,003
837,1	0,003
837,6	0,003
838	0,002
838,4	0,002
838,9	0,002
839,3	0,001
839,7	0,001
840,1	0,001
840,6	0,001
841	0,002
841,4	0,002
841,9	0,002
842,3	0,002
842,7	0,002
843,1	0,002
843,6	0,002
844	0,002
844,4	0,002
844,9	0,002
845,3	0,002
845,7	0,002
846,2	0,002
846,6	0,002
847	0,002
847,4	0,002
847,9	0,002
848,3	0,002
848,7	0,002
849,2	0,002
849,6	0,002
850	0,002
850,4	0,002
850,9	0,002
851,3	0,002
851,7	0,002
852,2	0,002
852,6	0,002
853	0,002
853,4	0,002
853,9	0,002
854,3	0,002
854,7	0,002
855,2	0,002
855,6	0,002
856	0,002
856,4	0,003
856,9	0,003
857,3	0,003
857,7	0,003
858,2	0,004
858,6	0,004
859	0,004
859,4	0,004
859,9	0,004
860,3	0,004
860,7	0,004
861,1	0,004
861,6	0,003
862	0,003
862,4	0,003
862,9	0,003
863,3	0,004
863,7	0,004
864,1	0,004
864,6	0,004
865	0,004
865,4	0,004
865,9	0,004
866,3	0,004
866,7	0,003
867,1	0,003
867,6	0,003
868	0,003
868,4	0,003
868,8	0,003
869,3	0,003
869,7	0,003
870,1	0,004
870,6	0,004
871	0,004
871,4	0,003
871,8	0,003
872,3	0,003
872,7	0,003
873,1	0,003
873,5	0,003
874	0,003
874,4	0,003
874,8	0,002
875,3	0,002
875,7	0,002
876,1	0,002
876,5	0,002
877	0,002
877,4	0,002
877,8	0,002
878,2	0,002
878,7	0,002
879,1	0,002
879,5	0,002
879,9	0,002
880,4	0,002
880,8	0,002
881,2	0,002
881,7	0,002
882,1	0,003
882,5	0,003
882,9	0,003
883,4	0,003
883,8	0,003
884,2	0,003
884,6	0,003
885,1	0,003
885,5	0,002
885,9	0,002
886,3	0,002
886,8	0,002
887,2	0,002
887,6	0,002
888	0,003
888,5	0,003
888,9	0,003
889,3	0,004
889,8	0,004
890,2	0,004
890,6	0,004
891	0,004
891,5	0,004
891,9	0,004
892,3	0,003
892,7	0,003
893,2	0,003
893,6	0,003
894	0,003
894,4	0,003
894,9	0,003
895,3	0,003
895,7	0,003
896,1	0,003
896,6	0,002
897	0,002
897,4	0,002
897,8	0,003
898,3	0,003
898,7	0,003
899,1	0,003
899,5	0,003
900	0,003
900,4	0,003
900,8	0,003
901,2	0,003
901,7	0,004
902,1	0,003
902,5	0,003
902,9	0,004
903,4	0,003
903,8	0,003
904,2	0,003
904,6	0,003
905,1	0,003
905,5	0,003
905,9	0,003
906,3	0,003
906,8	0,003
907,2	0,004
907,6	0,003
908	0,003
908,5	0,004
908,9	0,004
909,3	0,004
909,7	0,004
910,2	0,004
910,6	0,004
911	0,004
911,4	0,004
911,9	0,004
912,3	0,004
912,7	0,004
913,1	0,003
913,6	0,002
914	0,002
914,4	0,002
914,8	0,001
915,3	0,001
915,7	0,001
916,1	0,002
916,5	0,002
916,9	0,002
917,4	0,002
917,8	0,002
918,2	0,002
918,6	0,001
919,1	0,001
919,5	0,002
919,9	0,001
920,3	0,001
920,8	0,001
921,2	0,001
921,6	0,001
922	0,002
922,5	0,001
922,9	0,002
923,3	0,002
923,7	0,002
924,2	0,002
924,6	0,002
925	0,001
925,4	0,002
925,8	0,001
926,3	0,002
926,7	0,002
927,1	0,002
927,5	0,002
928	0,003
928,4	0,003
928,8	0,003
929,2	0,003
929,7	0,004
930,1	0,004
930,5	0,004
930,9	0,004
931,3	0,004
931,8	0,004
932,2	0,004
932,6	0,003
933	0,003
933,5	0,003
933,9	0,003
934,3	0,003
934,7	0,003
935,2	0,003
935,6	0,003
936	0,003
936,4	0,003
936,8	0,003
937,3	0,003
937,7	0,003
938,1	0,003
938,5	0,003
939	0,002
939,4	0,002
939,8	0,002
940,2	0,002
940,6	0,003
941,1	0,002
941,5	0,002
941,9	0,002
942,3	0,002
942,8	0,002
943,2	0,002
943,6	0,001
944	0,001
944,4	0,001
944,9	0,001
945,3	0,001
945,7	0,001
946,1	0,002
946,6	0,001
947	0,001
947,4	0,001
947,8	0,001
948,2	0,001
948,7	0,001
949,1	0,001
949,5	0,001
949,9	0,001
950,3	0,001
950,8	0,001
951,2	0,002
951,6	0,002
952	0,002
952,5	0,002
952,9	0,002
953,3	0,002
953,7	0,002
954,1	0,002
954,6	0,001
955	0,001
955,4	0,001
955,8	0,001
956,2	0,001
956,7	0,001
957,1	0,002
957,5	0,002
957,9	0,002
958,3	0,003
958,8	0,002
959,2	0,002
959,6	0,002
960	0,002
960,5	0,002
960,9	0,002
961,3	0,002
961,7	0,002
962,1	0,003
962,6	0,004
963	0,004
963,4	0,004
963,8	0,004
964,2	0,004
964,7	0,005
965,1	0,004
965,5	0,004
965,9	0,003
966,3	0,004
966,8	0,003
967,2	0,003
967,6	0,002
968	0,002
968,4	0,002
968,9	0,002
969,3	0,001
969,7	0,002
970,1	0,002
970,5	0,002
971	0,001
971,4	0,001
971,8	0,001
972,2	0,001
972,6	0,001
973,1	0,001
973,5	0
973,9	0
974,3	0,001
974,7	0,001
975,2	0,001
975,6	0,001
976	0,001
976,4	0,002
976,8	0,002
977,3	0,002
977,7	0,002
978,1	0,002
978,5	0,001
978,9	0,001
979,4	0,001
979,8	0,001
980,2	0,001
980,6	0,001
981	0,001
981,5	0,001
981,9	0,001
982,3	0,001
982,7	0,001
983,1	0
983,6	0,001
984	0,001
984,4	0,001
984,8	0,001
985,2	0,002
985,6	0,002
986,1	0,002
986,5	0,002
986,9	0,002
987,3	0,002
987,7	0,002
988,2	0,002
988,6	0,002
989	0,002
989,4	0,001
989,8	0,001
990,3	0,001
990,7	0
991,1	-0
991,5	-0,001
991,9	-0,001
992,3	-0
992,8	-0,001
993,2	-0,001
993,6	-0,001
994	0
994,4	0
994,9	0
995,3	0
995,7	0
996,1	0,001
996,5	0
996,9	-0
997,4	0
997,8	0
998,2	-0
998,6	0
999	-0
999,5	0,001
999,9	0,001
1000,3	0,001
1000,7	0,001
1001,1	0,001
1001,5	0,002
1002	0,002
1002,4	0,002
1002,8	0,002
1003,2	0,003
1003,6	0,002
1004	0,002
1004,5	0,002
1004,9	0,003
1005,3	0,002
1005,7	0,002
1006,1	0,002
1006,6	0,002
1007	0,001
1007,4	0,001
1007,8	0,001
1008,2	0,001
1008,6	0,001
1009,1	0
1009,5	0,001
1009,9	0,002
1010,3	0,002
1010,7	0,002
1011,1	0,002
1011,6	0,001
1012	0,002
1012,4	0,002
1012,8	0,002
1013,2	0,002
1013,6	0,002
1014,1	0,002
1014,5	0,002
1014,9	0,003
1015,3	0,003
1015,7	0,003
1016,1	0,003
1016,6	0,003
1017	0,002
1017,4	0,003
1017,8	0,002
1018,2	0,001
1018,6	0,001
1019,1	0,001
1019,5	0,001
1019,9	0,001
1020,3	0
1020,7	0,001
1021,1	0,002
1021,6	0,002
1022	0,002
1022,4	0,002
1022,8	0,003
1023,2	0,004
1023,6	0,004
1024,1	0,004
1024,5	0,004
1024,9	0,004
1025,3	0,003
1025,7	0,003
1026,1	0,002
1026,6	0,002
1027	0,001
1027,4	0,001
1027,8	0,001
1028,2	0,002
1028,6	0,001
1029	0,002
1029,5	0,001
1029,9	0,002
1030,3	0,002
1030,7	0,003
1031,1	0,003
1031,5	0,003
1032	0,003
1032,4	0,002
1032,8	0,003
1033,2	0,002
1033,6	0,002
1034	0,002
1034,4	0,001
1034,9	0,001
1035,3	0,001
1035,7	0,001
1036,1	0,001
1036,5	0,001
1036,9	0,001
1037,4	0,001
1037,8	0,002
1038,2	0,003
1038,6	0,003
1039	0,003
1039,4	0,002
1039,8	0,002
1040,3	0,002
1040,7	0,002
1041,1	0,002
1041,5	0,002
1041,9	0,002
1042,3	0,002
1042,7	0,002
1043,2	0,002
1043,6	0,003
1044	0,002
1044,4	0,001
1044,8	0,001
1045,2	0,001
1045,6	0,001
1046,1	0
1046,5	0
1046,9	0,001
1047,3	0,001
1047,7	0
1048,1	0
1048,5	0
1049	-0
1049,4	-0,001
1049,8	-0,001
1050,2	-0,001
1050,6	0
1051	0,001
1051,4	0,001
1051,9	0,002
1052,3	0,002
1052,7	0,002
1053,1	0,002
1053,5	0,002
1053,9	0,002
1054,3	0,002
1054,8	0,001
1055,2	0,002
1055,6	0,002
1056	0,002
1056,4	0,001
1056,8	0,001
1057,2	0,002
1057,6	0,001
1058,1	0
1058,5	0,001
1058,9	0
1059,3	0,001
1059,7	0,001
1060,1	0
1060,5	0,001
1061	0,002
1061,4	0,001
1061,8	0,002
1062,2	0,001
1062,6	0,001
1063	0,003
1063,4	0,002
1063,8	0,001
1064,3	0,002
1064,7	0,001
1065,1	0,001
1065,5	0,001
1065,9	0
1066,3	0,001
1066,7	0,001
1067,1	0,001
1067,6	0,001
1068	0,001
1068,4	0,001
1068,8	0,001
1069,2	0,001
1069,6	0,001
1070	0
1070,4	-0
1070,9	0
1071,3	0
1071,7	0,002
1072,1	0,001
1072,5	0,001
1072,9	0,001
1073,3	0
1073,7	0
1074,2	0
1074,6	-0,001
1075	-0
1075,4	-0,001
1075,8	-0
1076,2	-0
1076,6	0
1077	0
1077,5	0,001
1077,9	0
1078,3	0,001
1078,7	0,002
1079,1	0,001
1079,5	0
1079,9	0,001
1080,3	0
1080,7	0,001
1081,2	0,002
1081,6	0,002
1082	0,002
1082,4	0,003
1082,8	0,002
1083,2	0,003
1083,6	0,003
1084	-0
1084,5	-0,001
1084,9	-0
1085,3	-0,001
1085,7	-0,001
1086,1	-0,002
1086,5	-0,002
1086,9	-0
1087,3	0,001
1087,7	0,001
1088,2	0,001
1088,6	-0
1089	0,001
1089,4	0
1089,8	0,001
1090,2	0
1090,6	-0,001
1091	-0,002
1091,4	-0,004
1091,9	-0,004
1092,3	-0,005
1092,7	-0,005
1093,1	-0,006
1093,5	-0,007
1093,9	-0,003
1094,3	-0,004
1094,7	-0,005
1095,1	-0,005
1095,5	-0,009
1096	-0,007
1096,4	-0,008
1096,8	-0,015
1097,2	-0,011
1097,6	-0,008
1098	-0,006
1098,4	-0,004
1098,8	-0,006
1099,2	0,002
1099,6	0,005
1100,1	0,009
1100,5	0,011
1100,9	0,011
1101,3	0,013
1101,7	0,014
1102,1	0,005
1102,5	0,005
1102,9	-0,005
1103,3	-0,013
1103,7	-0,003
1104,2	-0,001
1104,6	-0,006
1105	-0,014
1105,4	-0,02
1105,8	-0,01
1106,2	-0,01
1106,6	-0,031
1107	-0,039
1107,4	-0,043
1107,8	-0,017
1108,3	-0
