Data from Absorbance_038.txt Node
Date: Fri Nov 13 13:31:05 MSK 2020
User: vat
Spectrometer: MAYP114033
Trigger mode: 0
Integration Time (sec): 8,000000E-3
Scans to average: 10
Electric dark correction enabled: true
Nonlinearity correction enabled: false
Boxcar width: 3
XAxis mode: Wavelengths
Number of Pixels in Spectrum: 2068
>>>>>Begin Spectral Data<<<<<
199,4	0,634
199,9	-0,108
200,4	0,012
200,8	0,014
201,3	0,01
201,8	0,035
202,2	0,02
202,7	0,033
203,2	0,048
203,6	0,058
204,1	0,052
204,6	0,071
205	0,056
205,5	0,069
206	0,058
206,4	0,057
206,9	0,055
207,4	0,071
207,8	0,059
208,3	0,073
208,8	0,075
209,2	0,061
209,7	0,06
210,2	0,045
210,6	0,041
211,1	0,054
211,5	0,046
212	0,054
212,5	0,072
212,9	0,084
213,4	0,102
213,9	0,097
214,3	0,074
214,8	0,094
215,3	0,086
215,7	0,085
216,2	0,092
216,7	0,108
217,1	0,121
217,6	0,121
218,1	0,119
218,5	0,123
219	0,126
219,5	0,123
219,9	0,093
220,4	0,088
220,9	0,1
221,3	0,11
221,8	0,09
222,3	0,082
222,7	0,082
223,2	0,096
223,6	0,1
224,1	0,076
224,6	0,047
225	0,047
225,5	0,063
226	0,054
226,4	0,041
226,9	0,015
227,4	0,029
227,8	0,045
228,3	0,064
228,8	0,065
229,2	0,066
229,7	0,068
230,2	0,095
230,6	0,107
231,1	0,113
231,5	0,101
232	0,083
232,5	0,086
232,9	0,103
233,4	0,099
233,9	0,097
234,3	0,104
234,8	0,121
235,3	0,149
235,7	0,152
236,2	0,146
236,7	0,14
237,1	0,144
237,6	0,134
238,1	0,13
238,5	0,118
239	0,123
239,4	0,114
239,9	0,126
240,4	0,127
240,8	0,127
241,3	0,137
241,8	0,148
242,2	0,151
242,7	0,165
243,2	0,17
243,6	0,176
244,1	0,187
244,6	0,188
245	0,187
245,5	0,19
245,9	0,185
246,4	0,18
246,9	0,194
247,3	0,189
247,8	0,19
248,3	0,191
248,7	0,195
249,2	0,211
249,7	0,225
250,1	0,221
250,6	0,227
251	0,23
251,5	0,233
252	0,23
252,4	0,229
252,9	0,229
253,4	0,232
253,8	0,236
254,3	0,242
254,8	0,246
255,2	0,253
255,7	0,26
256,1	0,266
256,6	0,272
257,1	0,278
257,5	0,285
258	0,292
258,5	0,301
258,9	0,31
259,4	0,319
259,9	0,328
260,3	0,339
260,8	0,35
261,2	0,361
261,7	0,372
262,2	0,383
262,6	0,393
263,1	0,405
263,6	0,417
264	0,429
264,5	0,441
264,9	0,453
265,4	0,466
265,9	0,479
266,3	0,491
266,8	0,503
267,3	0,514
267,7	0,526
268,2	0,538
268,7	0,55
269,1	0,562
269,6	0,574
270	0,587
270,5	0,599
271	0,611
271,4	0,623
271,9	0,634
272,4	0,646
272,8	0,657
273,3	0,669
273,7	0,679
274,2	0,691
274,7	0,702
275,1	0,712
275,6	0,723
276,1	0,734
276,5	0,742
277	0,752
277,4	0,759
277,9	0,767
278,4	0,774
278,8	0,78
279,3	0,784
279,8	0,789
280,2	0,793
280,7	0,797
281,1	0,799
281,6	0,802
282,1	0,804
282,5	0,806
283	0,807
283,4	0,807
283,9	0,806
284,4	0,805
284,8	0,803
285,3	0,799
285,8	0,795
286,2	0,789
286,7	0,783
287,1	0,777
287,6	0,769
288,1	0,761
288,5	0,753
289	0,743
289,5	0,734
289,9	0,723
290,4	0,711
290,8	0,699
291,3	0,687
291,8	0,673
292,2	0,659
292,7	0,645
293,1	0,631
293,6	0,617
294,1	0,601
294,5	0,585
295	0,568
295,5	0,552
295,9	0,536
296,4	0,518
296,8	0,501
297,3	0,484
297,8	0,468
298,2	0,451
298,7	0,435
299,1	0,417
299,6	0,401
300,1	0,385
300,5	0,369
301	0,353
301,5	0,337
301,9	0,322
302,4	0,308
302,8	0,293
303,3	0,279
303,8	0,266
304,2	0,253
304,7	0,241
305,1	0,228
305,6	0,216
306,1	0,205
306,5	0,194
307	0,184
307,4	0,174
307,9	0,165
308,4	0,156
308,8	0,147
309,3	0,139
309,8	0,132
310,2	0,125
310,7	0,118
311,1	0,111
311,6	0,106
312,1	0,1
312,5	0,095
313	0,089
313,4	0,084
313,9	0,08
314,4	0,076
314,8	0,072
315,3	0,068
315,7	0,064
316,2	0,061
316,7	0,058
317,1	0,055
317,6	0,053
318	0,05
318,5	0,048
319	0,046
319,4	0,044
319,9	0,042
320,3	0,041
320,8	0,039
321,3	0,038
321,7	0,036
322,2	0,035
322,6	0,034
323,1	0,033
323,6	0,031
324	0,03
324,5	0,03
324,9	0,029
325,4	0,029
325,9	0,028
326,3	0,028
326,8	0,028
327,2	0,027
327,7	0,027
328,2	0,026
328,6	0,026
329,1	0,025
329,5	0,025
330	0,024
330,5	0,024
330,9	0,023
331,4	0,024
331,8	0,023
332,3	0,023
332,8	0,023
333,2	0,023
333,7	0,022
334,1	0,022
334,6	0,021
335,1	0,021
335,5	0,021
336	0,02
336,4	0,02
336,9	0,02
337,4	0,02
337,8	0,02
338,3	0,02
338,7	0,02
339,2	0,021
339,7	0,02
340,1	0,021
340,6	0,021
341	0,02
341,5	0,02
342	0,02
342,4	0,02
342,9	0,019
343,3	0,019
343,8	0,019
344,2	0,018
344,7	0,018
345,2	0,018
345,6	0,018
346,1	0,018
346,5	0,018
347	0,018
347,5	0,018
347,9	0,018
348,4	0,018
348,8	0,018
349,3	0,018
349,8	0,018
350,2	0,018
350,7	0,018
351,1	0,018
351,6	0,018
352	0,018
352,5	0,018
353	0,018
353,4	0,018
353,9	0,017
354,3	0,016
354,8	0,016
355,3	0,017
355,7	0,017
356,2	0,017
356,6	0,016
357,1	0,017
357,5	0,017
358	0,017
358,5	0,017
358,9	0,017
359,4	0,016
359,8	0,017
360,3	0,017
360,8	0,017
361,2	0,016
361,7	0,016
362,1	0,016
362,6	0,016
363	0,016
363,5	0,015
364	0,015
364,4	0,015
364,9	0,015
365,3	0,015
365,8	0,015
366,3	0,015
366,7	0,014
367,2	0,015
367,6	0,014
368,1	0,014
368,5	0,014
369	0,014
369,5	0,014
369,9	0,014
370,4	0,013
370,8	0,013
371,3	0,013
371,7	0,014
372,2	0,013
372,7	0,013
373,1	0,013
373,6	0,013
374	0,013
374,5	0,013
374,9	0,013
375,4	0,013
375,9	0,013
376,3	0,013
376,8	0,013
377,2	0,013
377,7	0,013
378,2	0,013
378,6	0,014
379,1	0,013
379,5	0,013
380	0,013
380,4	0,013
380,9	0,012
381,4	0,012
381,8	0,012
382,3	0,012
382,7	0,012
383,2	0,012
383,6	0,012
384,1	0,012
384,6	0,012
385	0,012
385,5	0,012
385,9	0,012
386,4	0,012
386,8	0,012
387,3	0,012
387,7	0,011
388,2	0,012
388,7	0,012
389,1	0,012
389,6	0,011
390	0,012
390,5	0,012
390,9	0,011
391,4	0,011
391,9	0,011
392,3	0,011
392,8	0,011
393,2	0,011
393,7	0,011
394,1	0,011
394,6	0,011
395,1	0,011
395,5	0,011
396	0,011
396,4	0,011
396,9	0,011
397,3	0,011
397,8	0,011
398,2	0,011
398,7	0,011
399,2	0,011
399,6	0,011
400,1	0,01
400,5	0,01
401	0,01
401,4	0,01
401,9	0,01
402,4	0,01
402,8	0,01
403,3	0,01
403,7	0,01
404,2	0,01
404,6	0,01
405,1	0,01
405,5	0,01
406	0,01
406,5	0,01
406,9	0,01
407,4	0,009
407,8	0,009
408,3	0,009
408,7	0,008
409,2	0,008
409,6	0,008
410,1	0,008
410,6	0,008
411	0,008
411,5	0,008
411,9	0,008
412,4	0,009
412,8	0,009
413,3	0,009
413,7	0,009
414,2	0,009
414,7	0,009
415,1	0,009
415,6	0,008
416	0,008
416,5	0,008
416,9	0,008
417,4	0,008
417,8	0,008
418,3	0,008
418,8	0,008
419,2	0,008
419,7	0,008
420,1	0,008
420,6	0,008
421	0,008
421,5	0,008
421,9	0,008
422,4	0,008
422,8	0,008
423,3	0,008
423,8	0,008
424,2	0,008
424,7	0,008
425,1	0,009
425,6	0,008
426	0,008
426,5	0,008
426,9	0,008
427,4	0,008
427,9	0,007
428,3	0,007
428,8	0,007
429,2	0,007
429,7	0,007
430,1	0,007
430,6	0,007
431	0,007
431,5	0,007
431,9	0,007
432,4	0,007
432,8	0,007
433,3	0,007
433,8	0,007
434,2	0,007
434,7	0,007
435,1	0,007
435,6	0,007
436	0,007
436,5	0,007
436,9	0,007
437,4	0,008
437,8	0,007
438,3	0,007
438,8	0,007
439,2	0,007
439,7	0,007
440,1	0,007
440,6	0,007
441	0,007
441,5	0,007
441,9	0,007
442,4	0,007
442,8	0,007
443,3	0,007
443,7	0,007
444,2	0,007
444,7	0,007
445,1	0,007
445,6	0,006
446	0,006
446,5	0,006
446,9	0,006
447,4	0,007
447,8	0,007
448,3	0,007
448,7	0,007
449,2	0,007
449,6	0,007
450,1	0,007
450,6	0,007
451	0,007
451,5	0,007
451,9	0,007
452,4	0,007
452,8	0,007
453,3	0,007
453,7	0,007
454,2	0,007
454,6	0,006
455,1	0,006
455,5	0,006
456	0,006
456,4	0,006
456,9	0,006
457,3	0,005
457,8	0,006
458,3	0,006
458,7	0,006
459,2	0,006
459,6	0,006
460,1	0,006
460,5	0,006
461	0,006
461,4	0,006
461,9	0,006
462,3	0,006
462,8	0,006
463,2	0,006
463,7	0,006
464,1	0,006
464,6	0,006
465	0,006
465,5	0,006
466	0,006
466,4	0,005
466,9	0,005
467,3	0,005
467,8	0,005
468,2	0,006
468,7	0,006
469,1	0,006
469,6	0,006
470	0,006
470,5	0,006
470,9	0,006
471,4	0,006
471,8	0,006
472,3	0,006
472,7	0,006
473,2	0,006
473,6	0,005
474,1	0,005
474,5	0,005
475	0,005
475,4	0,005
475,9	0,005
476,4	0,005
476,8	0,005
477,3	0,005
477,7	0,006
478,2	0,005
478,6	0,006
479,1	0,006
479,5	0,005
480	0,005
480,4	0,005
480,9	0,005
481,3	0,005
481,8	0,005
482,2	0,005
482,7	0,006
483,1	0,006
483,6	0,006
484	0,006
484,5	0,006
484,9	0,005
485,4	0,005
485,8	0,005
486,3	0,005
486,7	0,004
487,2	0,004
487,6	0,004
488,1	0,005
488,5	0,005
489	0,005
489,4	0,005
489,9	0,005
490,4	0,005
490,8	0,005
491,3	0,005
491,7	0,005
492,2	0,005
492,6	0,005
493,1	0,005
493,5	0,004
494	0,004
494,4	0,004
494,9	0,004
495,3	0,005
495,8	0,004
496,2	0,004
496,7	0,005
497,1	0,005
497,6	0,004
498	0,004
498,5	0,004
498,9	0,004
499,4	0,004
499,8	0,004
500,3	0,004
500,7	0,004
501,2	0,004
501,6	0,004
502,1	0,004
502,5	0,003
503	0,003
503,4	0,003
503,9	0,003
504,3	0,003
504,8	0,003
505,2	0,003
505,7	0,004
506,1	0,004
506,6	0,005
507	0,005
507,5	0,005
507,9	0,005
508,4	0,005
508,8	0,005
509,3	0,005
509,7	0,004
510,2	0,005
510,6	0,005
511,1	0,005
511,5	0,005
512	0,004
512,4	0,005
512,9	0,004
513,3	0,004
513,8	0,004
514,2	0,004
514,7	0,004
515,1	0,004
515,6	0,004
516	0,004
516,5	0,004
516,9	0,004
517,4	0,004
517,8	0,004
518,3	0,004
518,7	0,004
519,2	0,004
519,6	0,004
520,1	0,004
520,5	0,004
521	0,004
521,4	0,004
521,9	0,004
522,3	0,004
522,8	0,004
523,2	0,004
523,7	0,004
524,1	0,004
524,6	0,004
525	0,004
525,5	0,003
525,9	0,003
526,4	0,003
526,8	0,004
527,3	0,003
527,7	0,004
528,2	0,004
528,6	0,004
529,1	0,003
529,5	0,004
530	0,003
530,4	0,003
530,9	0,004
531,3	0,003
531,8	0,003
532,2	0,004
532,6	0,004
533,1	0,004
533,5	0,004
534	0,003
534,4	0,004
534,9	0,004
535,3	0,004
535,8	0,004
536,2	0,004
536,7	0,004
537,1	0,004
537,6	0,004
538	0,004
538,5	0,003
538,9	0,003
539,4	0,003
539,8	0,003
540,3	0,003
540,7	0,003
541,2	0,003
541,6	0,003
542,1	0,003
542,5	0,002
543	0,003
543,4	0,002
543,9	0,003
544,3	0,002
544,8	0,002
545,2	0,003
545,7	0,004
546,1	0,004
546,5	0,004
547	0,004
547,4	0,004
547,9	0,004
548,3	0,003
548,8	0,003
549,2	0,002
549,7	0,003
550,1	0,003
550,6	0,003
551	0,003
551,5	0,003
551,9	0,003
552,4	0,003
552,8	0,003
553,3	0,003
553,7	0,003
554,2	0,003
554,6	0,003
555,1	0,002
555,5	0,002
555,9	0,002
556,4	0,002
556,8	0,002
557,3	0,002
557,7	0,002
558,2	0,003
558,6	0,003
559,1	0,003
559,5	0,004
560	0,004
560,4	0,003
560,9	0,003
561,3	0,002
561,8	0,002
562,2	0,002
562,7	0,002
563,1	0,002
563,6	0,002
564	0,002
564,4	0,003
564,9	0,003
565,3	0,004
565,8	0,004
566,2	0,004
566,7	0,004
567,1	0,004
567,6	0,004
568	0,003
568,5	0,003
568,9	0,003
569,4	0,003
569,8	0,003
570,3	0,003
570,7	0,002
571,1	0,002
571,6	0,003
572	0,003
572,5	0,002
572,9	0,002
573,4	0,002
573,8	0,002
574,3	0,002
574,7	0,002
575,2	0,002
575,6	0,003
576,1	0,003
576,5	0,003
576,9	0,003
577,4	0,003
577,8	0,003
578,3	0,002
578,7	0,002
579,2	0,002
579,6	0,002
580,1	0,002
580,5	0,002
581	0,002
581,4	0,002
581,9	0,002
582,3	0,002
582,7	0,002
583,2	0,002
583,6	0,003
584,1	0,002
584,5	0,003
585	0,003
585,4	0,003
585,9	0,003
586,3	0,002
586,8	0,002
587,2	0,003
587,6	0,003
588,1	0,003
588,5	0,003
589	0,002
589,4	0,003
589,9	0,003
590,3	0,003
590,8	0,002
591,2	0,002
591,7	0,002
592,1	0,002
592,5	0,002
593	0,002
593,4	0,002
593,9	0,002
594,3	0,002
594,8	0,002
595,2	0,002
595,7	0,002
596,1	0,003
596,6	0,003
597	0,003
597,4	0,003
597,9	0,003
598,3	0,003
598,8	0,003
599,2	0,003
599,7	0,002
600,1	0,002
600,6	0,002
601	0,002
601,4	0,001
601,9	0,001
602,3	0,001
602,8	0,002
603,2	0,002
603,7	0,002
604,1	0,002
604,6	0,002
605	0,002
605,4	0,002
605,9	0,002
606,3	0,002
606,8	0,002
607,2	0,002
607,7	0,003
608,1	0,003
608,6	0,003
609	0,003
609,4	0,003
609,9	0,003
610,3	0,003
610,8	0,002
611,2	0,003
611,7	0,002
612,1	0,002
612,6	0,002
613	0,002
613,4	0,002
613,9	0,002
614,3	0,001
614,8	0,001
615,2	0,002
615,7	0,001
616,1	0,002
616,6	0,002
617	0,002
617,4	0,002
617,9	0,002
618,3	0,002
618,8	0,002
619,2	0,002
619,7	0,002
620,1	0,002
620,5	0,002
621	0,002
621,4	0,002
621,9	0,002
622,3	0,002
622,8	0,002
623,2	0,002
623,6	0,002
624,1	0,002
624,5	0,002
625	0,002
625,4	0,002
625,9	0,001
626,3	0,001
626,8	0,001
627,2	0,001
627,6	0,001
628,1	0,001
628,5	0,002
629	0,002
629,4	0,002
629,9	0,002
630,3	0,002
630,7	0,002
631,2	0,002
631,6	0,002
632,1	0,002
632,5	0,002
633	0,002
633,4	0,001
633,8	0,002
634,3	0,002
634,7	0,002
635,2	0,002
635,6	0,002
636,1	0,002
636,5	0,003
636,9	0,003
637,4	0,002
637,8	0,002
638,3	0,002
638,7	0,002
639,2	0,002
639,6	0,002
640	0,001
640,5	0,001
640,9	0,001
641,4	0,002
641,8	0,002
642,2	0,001
642,7	0,001
643,1	0,001
643,6	0,001
644	0,001
644,5	0,001
644,9	0,001
645,3	0,001
645,8	0,002
646,2	0,002
646,7	0,002
647,1	0,003
647,6	0,002
648	0,002
648,4	0,002
648,9	0,002
649,3	0,002
649,8	0,002
650,2	0,002
650,6	0,002
651,1	0,002
651,5	0,001
652	0,001
652,4	0,001
652,9	0,001
653,3	0,002
653,7	0,004
654,2	0,003
654,6	0,002
655,1	0,002
655,5	0,001
655,9	0,002
656,4	0,001
656,8	0
657,3	0
657,7	0
658,2	0
658,6	0,002
659	0,001
659,5	0,001
659,9	0,001
660,4	0,002
660,8	0,002
661,2	0,002
661,7	0,002
662,1	0,002
662,6	0,002
663	0,002
663,4	0,002
663,9	0,002
664,3	0,002
664,8	0,002
665,2	0,002
665,6	0,002
666,1	0,002
666,5	0,002
667	0,002
667,4	0,002
667,9	0,002
668,3	0,001
668,7	0,002
669,2	0,002
669,6	0,002
670,1	0,002
670,5	0,002
670,9	0,002
671,4	0,002
671,8	0,001
672,3	0,001
672,7	0,001
673,1	0,001
673,6	0,001
674	0,001
674,5	0,001
674,9	0,001
675,3	0,001
675,8	0,001
676,2	0,001
676,7	0,002
677,1	0,002
677,5	0,002
678	0,002
678,4	0,002
678,9	0,002
679,3	0,002
679,7	0,002
680,2	0,002
680,6	0,001
681,1	0,001
681,5	0,002
681,9	0,001
682,4	0,001
682,8	0,001
683,3	0,001
683,7	0,002
684,1	0,002
684,6	0,002
685	0,002
685,5	0,001
685,9	0,002
686,3	0,002
686,8	0,002
687,2	0,002
687,7	0,002
688,1	0,002
688,5	0,002
689	0,002
689,4	0,002
689,9	0,002
690,3	0,001
690,7	0,002
691,2	0,001
691,6	0,001
692	0,001
692,5	0,001
692,9	0,001
693,4	0,001
693,8	0,001
694,2	0,001
694,7	0,001
695,1	0,001
695,6	0,001
696	0,002
696,4	0,002
696,9	0,002
697,3	0,002
697,8	0,002
698,2	0,001
698,6	0,001
699,1	0,001
699,5	0,001
699,9	0,001
700,4	0,001
700,8	0,001
701,3	0,001
701,7	0,001
702,1	0,002
702,6	0,002
703	0,002
703,5	0,002
703,9	0,002
704,3	0,002
704,8	0,002
705,2	0,002
705,6	0,002
706,1	0,002
706,5	0,001
707	0,002
707,4	0,002
707,8	0,001
708,3	0,001
708,7	0,001
709,2	0,001
709,6	0,001
710	0,001
710,5	0,001
710,9	0,001
711,3	0,001
711,8	0
712,2	0,001
712,7	0,001
713,1	0,001
713,5	0,001
714	0,001
714,4	0,001
714,8	0,001
715,3	0,001
715,7	0,001
716,2	0
716,6	0,001
717	0,001
717,5	0,001
717,9	0,002
718,3	0,001
718,8	0,002
719,2	0,002
719,7	0,001
720,1	0,002
720,5	0,001
721	0,001
721,4	0,002
721,8	0,001
722,3	0,002
722,7	0,002
723,2	0,002
723,6	0,002
724	0,002
724,5	0,002
724,9	0,002
725,3	0,002
725,8	0,002
726,2	0,002
726,7	0,002
727,1	0,002
727,5	0,002
728	0,001
728,4	0,001
728,8	0,001
729,3	0,001
729,7	0,001
730,1	0,001
730,6	0
731	0,001
731,5	0,001
731,9	0,001
732,3	0,001
732,8	0,002
733,2	0,002
733,6	0,002
734,1	0,001
734,5	0,001
734,9	0,001
735,4	0,001
735,8	0,001
736,3	0,001
736,7	0,001
737,1	0,001
737,6	0,001
738	0,001
738,4	0,001
738,9	0,001
739,3	0,001
739,7	0,001
740,2	0,001
740,6	0,001
741,1	0,001
741,5	0,001
741,9	0,001
742,4	0,001
742,8	0,001
743,2	0,001
743,7	0,001
744,1	0,001
744,5	0,001
745	0,001
745,4	0,001
745,8	0,001
746,3	0,001
746,7	0,001
747,2	0,002
747,6	0,001
748	0,001
748,5	0,001
748,9	0,001
749,3	0,001
749,8	0,001
750,2	0,001
750,6	0,001
751,1	0,001
751,5	0,001
751,9	0,001
752,4	0,001
752,8	0,001
753,3	0,001
753,7	0,001
754,1	0,001
754,6	0,001
755	0,001
755,4	0,001
755,9	0,001
756,3	0,001
756,7	0,001
757,2	0,001
757,6	0,001
758	0,001
758,5	0,001
758,9	0,001
759,3	0,001
759,8	0,001
760,2	0,001
760,6	0,001
761,1	0,001
761,5	0,001
761,9	0,001
762,4	0,001
762,8	0,001
763,3	0,001
763,7	0,001
764,1	0,001
764,6	0,001
765	0,001
765,4	0,001
765,9	0,001
766,3	0,001
766,7	0,001
767,2	0,001
767,6	0,002
768	0,002
768,5	0,002
768,9	0,002
769,3	0,002
769,8	0,002
770,2	0,002
770,6	0,001
771,1	0,001
771,5	0,001
771,9	0,001
772,4	0,001
772,8	0,001
773,2	0,001
773,7	0,001
774,1	0,001
774,5	0,001
775	0,001
775,4	0,001
775,8	0,001
776,3	0,001
776,7	0,001
777,1	0,001
777,6	0,001
778	0,002
778,4	0,002
778,9	0,002
779,3	0,002
779,7	0,002
780,2	0,002
780,6	0,001
781	0,001
781,5	0,001
781,9	0,001
782,3	0,001
782,8	0,001
783,2	0
783,6	0,001
784,1	0,001
784,5	0,001
784,9	0
785,4	0
785,8	0,001
786,2	0,001
786,7	0,001
787,1	0,001
787,5	0,001
788	0,001
788,4	0,001
788,8	0
789,3	0
789,7	0,001
790,1	0,001
790,6	0,001
791	0,001
791,4	0,001
791,9	0,001
792,3	0,001
792,7	0,001
793,2	0,001
793,6	0,001
794	0,001
794,5	0,001
794,9	0,001
795,3	0,001
795,8	0,001
796,2	0,001
796,6	0,001
797,1	0,001
797,5	0,001
797,9	0,001
798,4	0,001
798,8	0,001
799,2	0,001
799,7	0,001
800,1	0,001
800,5	0,001
801	0,001
801,4	0,001
801,8	0,001
802,2	0,001
802,7	0,001
803,1	0,001
803,5	0,001
804	0,001
804,4	0,001
804,8	0,001
805,3	0,001
805,7	0,001
806,1	0,001
806,6	0,001
807	0,001
807,4	0,001
807,9	0,001
808,3	0,001
808,7	0,001
809,2	0,001
809,6	0,001
810	0,001
810,4	0,001
810,9	0,001
811,3	0,001
811,7	0,002
812,2	0,002
812,6	0,001
813	0,001
813,5	0,001
813,9	0,001
814,3	0,001
814,8	0
815,2	0
815,6	0
816,1	0
816,5	0
816,9	0,001
817,3	0,001
817,8	0,001
818,2	0,001
818,6	0,001
819,1	0,001
819,5	0,001
819,9	0
820,4	0
820,8	0
821,2	0
821,7	0,001
822,1	0,001
822,5	0,001
822,9	0,001
823,4	0,001
823,8	0,001
824,2	0,001
824,7	0,001
825,1	0,001
825,5	0,001
826	0,001
826,4	0,001
826,8	0,001
827,3	0,001
827,7	0,001
828,1	0,001
828,5	0,001
829	0,001
829,4	0,001
829,8	0,001
830,3	0,001
830,7	0,001
831,1	0,001
831,6	0,001
832	0,001
832,4	0,001
832,8	0,001
833,3	0,001
833,7	0,001
834,1	0
834,6	0
835	0,001
835,4	0,001
835,8	0,001
836,3	0,001
836,7	0,001
837,1	0,001
837,6	0,001
838	0,001
838,4	0,001
838,9	0,001
839,3	0,001
839,7	0,002
840,1	0,002
840,6	0,002
841	0,002
841,4	0,002
841,9	0,002
842,3	0,002
842,7	0,002
843,1	0,002
843,6	0,002
844	0,002
844,4	0,002
844,9	0,002
845,3	0,002
845,7	0,002
846,2	0,002
846,6	0,001
847	0,001
847,4	0,001
847,9	0,001
848,3	0,001
848,7	0,001
849,2	0,001
849,6	0,001
850	0,002
850,4	0,002
850,9	0,002
851,3	0,002
851,7	0,002
852,2	0,001
852,6	0,001
853	0,001
853,4	0,001
853,9	0,001
854,3	0,001
854,7	0,001
855,2	0,001
855,6	0,001
856	0,001
856,4	0,001
856,9	0,001
857,3	0,001
857,7	0,001
858,2	0,001
858,6	0,001
859	0,001
859,4	0,001
859,9	0,001
860,3	0,001
860,7	0,001
861,1	0,001
861,6	0,001
862	0,001
862,4	0,001
862,9	0,001
863,3	0,001
863,7	0,002
864,1	0,001
864,6	0,002
865	0,001
865,4	0,001
865,9	0,002
866,3	0,002
866,7	0,002
867,1	0,001
867,6	0,001
868	0,001
868,4	0,001
868,8	0,001
869,3	0,001
869,7	0,001
870,1	0,001
870,6	0,001
871	0,001
871,4	0,001
871,8	0,001
872,3	0,001
872,7	0,001
873,1	0,001
873,5	0,001
874	0,001
874,4	0,001
874,8	0,001
875,3	0,001
875,7	0,001
876,1	0,001
876,5	0,001
877	0
877,4	0,001
877,8	0,001
878,2	0,001
878,7	0,001
879,1	0,001
879,5	0,001
879,9	0,001
880,4	0,001
880,8	0,001
881,2	0,001
881,7	0,001
882,1	0,001
882,5	0,001
882,9	0,001
883,4	0,001
883,8	0,001
884,2	0,001
884,6	0,001
885,1	0,001
885,5	0,001
885,9	0,001
886,3	0,001
886,8	0,001
887,2	0,001
887,6	0,001
888	0,001
888,5	0,001
888,9	0,001
889,3	0,001
889,8	0,001
890,2	0,001
890,6	0
891	0,001
891,5	0,001
891,9	0,001
892,3	0,001
892,7	0,001
893,2	0,001
893,6	0,001
894	0,001
894,4	0,001
894,9	0,001
895,3	0,001
895,7	0,002
896,1	0,001
896,6	0,001
897	0,001
897,4	0,001
897,8	0,001
898,3	0,001
898,7	0,001
899,1	0,001
899,5	0,001
900	0,001
900,4	0,001
900,8	0,001
901,2	0,002
901,7	0,002
902,1	0,002
902,5	0,001
902,9	0,002
903,4	0,002
903,8	0,002
904,2	0,001
904,6	0,001
905,1	0,001
905,5	0,001
905,9	0,001
906,3	0,001
906,8	0,001
907,2	0,001
907,6	0,001
908	0,001
908,5	0,001
908,9	0,001
909,3	0
909,7	0
910,2	0
910,6	0
911	0,001
911,4	0
911,9	0,001
912,3	0,001
912,7	0,001
913,1	0,001
913,6	0,001
914	0,001
914,4	0,001
914,8	0,001
915,3	0,001
915,7	0,001
916,1	0,001
916,5	0,001
916,9	0,001
917,4	0,001
917,8	0
918,2	0
918,6	0,001
919,1	0,001
919,5	0
919,9	0,001
920,3	0,001
920,8	0,001
921,2	0,001
921,6	0,001
922	0
922,5	0
922,9	0
923,3	0
923,7	0,001
924,2	0,001
924,6	0,001
925	0,001
925,4	0,001
925,8	0,001
926,3	0,001
926,7	0,001
927,1	0,001
927,5	0,001
928	0,001
928,4	0,001
928,8	0
929,2	0,001
929,7	0
930,1	0,001
930,5	0
930,9	0
931,3	0,001
931,8	0,001
932,2	0,001
932,6	0,001
933	0,001
933,5	0,001
933,9	0,001
934,3	0,001
934,7	0,001
935,2	0,001
935,6	0,001
936	0,001
936,4	0,001
936,8	0,001
937,3	0,001
937,7	0,002
938,1	0,002
938,5	0,001
939	0,001
939,4	0,001
939,8	0,001
940,2	0,002
940,6	0,001
941,1	0,001
941,5	0,001
941,9	0,001
942,3	0,001
942,8	0,001
943,2	0
943,6	0,001
944	0,001
944,4	0,001
944,9	0,001
945,3	0,001
945,7	0,001
946,1	0,001
946,6	0,002
947	0,001
947,4	0,001
947,8	0,001
948,2	0,001
948,7	0,002
949,1	0,002
949,5	0,002
949,9	0,001
950,3	0,001
950,8	0,001
951,2	0,001
951,6	0,001
952	0,001
952,5	0,002
952,9	0,002
953,3	0,002
953,7	0,002
954,1	0,002
954,6	0,001
955	0,001
955,4	0,001
955,8	0,001
956,2	0
956,7	0
957,1	-0
957,5	-0
957,9	-0
958,3	-0,001
958,8	-0,001
959,2	-0,001
959,6	-0,001
960	-0,001
960,5	-0
960,9	-0
961,3	0
961,7	0
962,1	0
962,6	0,001
963	0
963,4	0
963,8	0,001
964,2	0
964,7	0,001
965,1	0,001
965,5	0,001
965,9	0,001
966,3	0,001
966,8	0,001
967,2	0,001
967,6	0,001
968	0,001
968,4	0,001
968,9	0,001
969,3	0,001
969,7	0
970,1	0,001
970,5	0,001
971	0,001
971,4	0,001
971,8	0,001
972,2	0,001
972,6	0,001
973,1	0,001
973,5	0,001
973,9	0,001
974,3	0,001
974,7	0,001
975,2	0,001
975,6	0,001
976	0
976,4	0,001
976,8	0,001
977,3	0,001
977,7	0,001
978,1	0,001
978,5	0,001
978,9	0,001
979,4	0,001
979,8	0,001
980,2	0,001
980,6	0,001
981	0,001
981,5	0,001
981,9	0
982,3	-0
982,7	-0,001
983,1	-0
983,6	-0
984	-0
984,4	0
984,8	0
985,2	0,001
985,6	0,001
986,1	0,001
986,5	0,002
986,9	0,002
987,3	0,002
987,7	0,002
988,2	0,002
988,6	0,002
989	0,002
989,4	0,002
989,8	0,002
990,3	0,002
990,7	0,002
991,1	0,002
991,5	0,002
991,9	0,002
992,3	0,002
992,8	0,001
993,2	0,001
993,6	0,001
994	0,001
994,4	0,001
994,9	0,001
995,3	0,001
995,7	0,001
996,1	0,001
996,5	0,001
996,9	0,002
997,4	0,002
997,8	0,002
998,2	0,001
998,6	0,001
999	0,002
999,5	0,002
999,9	0,002
1000,3	0,001
1000,7	0,002
1001,1	0,002
1001,5	0,002
1002	0,002
1002,4	0,002
1002,8	0,002
1003,2	0,002
1003,6	0,002
1004	0,003
1004,5	0,002
1004,9	0,001
1005,3	0,001
1005,7	0,002
1006,1	0,002
1006,6	0,003
1007	0,003
1007,4	0,003
1007,8	0,003
1008,2	0,004
1008,6	0,003
1009,1	0,003
1009,5	0,002
1009,9	0,002
1010,3	0,001
1010,7	0,001
1011,1	0,001
1011,6	0,001
1012	0,001
1012,4	0,001
1012,8	0,001
1013,2	0,002
1013,6	0,003
1014,1	0,002
1014,5	0,002
1014,9	0,002
1015,3	0,002
1015,7	0,002
1016,1	0,001
1016,6	0,001
1017	0,001
1017,4	0,001
1017,8	0,001
1018,2	0,001
1018,6	0,001
1019,1	0,001
1019,5	0,001
1019,9	0,001
1020,3	0,001
1020,7	0,001
1021,1	0,001
1021,6	0,001
1022	0,001
1022,4	0,001
1022,8	0,001
1023,2	0,002
1023,6	0,002
1024,1	0,001
1024,5	0,001
1024,9	0,001
1025,3	0,001
1025,7	0
1026,1	-0
1026,6	0
1027	0
1027,4	0,001
1027,8	0,001
1028,2	0,001
1028,6	0,001
1029	0,002
1029,5	0,002
1029,9	0,002
1030,3	0,002
1030,7	0,002
1031,1	0,001
1031,5	0,002
1032	0,001
1032,4	0,001
1032,8	0,001
1033,2	0,002
1033,6	0,001
1034	0,002
1034,4	0,003
1034,9	0,003
1035,3	0,003
1035,7	0,002
1036,1	0,002
1036,5	0,003
1036,9	0,003
1037,4	0,002
1037,8	0,003
1038,2	0,003
1038,6	0,003
1039	0,003
1039,4	0,003
1039,8	0,003
1040,3	0,003
1040,7	0,002
1041,1	0,002
1041,5	0,001
1041,9	0,002
1042,3	0,002
1042,7	0,002
1043,2	0,002
1043,6	0,002
1044	0,003
1044,4	0,003
1044,8	0,002
1045,2	0,001
1045,6	0,001
1046,1	0,001
1046,5	0,001
1046,9	0,001
1047,3	0,001
1047,7	0,002
1048,1	0,002
1048,5	0,003
1049	0,002
1049,4	0,002
1049,8	0,003
1050,2	0,002
1050,6	0,002
1051	0,002
1051,4	0,003
1051,9	0,003
1052,3	0,003
1052,7	0,003
1053,1	0,003
1053,5	0,002
1053,9	0,002
1054,3	0,001
1054,8	0
1055,2	0,001
1055,6	0,001
1056	0,001
1056,4	0,001
1056,8	0,002
1057,2	0,003
1057,6	0,003
1058,1	0,003
1058,5	0,002
1058,9	0,003
1059,3	0,004
1059,7	0,004
1060,1	0,004
1060,5	0,004
1061	0,004
1061,4	0,004
1061,8	0,004
1062,2	0,003
1062,6	0,003
1063	0,002
1063,4	0,001
1063,8	0,001
1064,3	0,001
1064,7	0,001
1065,1	0,001
1065,5	0,002
1065,9	0,002
1066,3	0,002
1066,7	0,003
1067,1	0,002
1067,6	0,001
1068	0,002
1068,4	0,002
1068,8	0,002
1069,2	0,002
1069,6	0,001
1070	0,002
1070,4	0,002
1070,9	0,002
1071,3	0,002
1071,7	0,002
1072,1	0,002
1072,5	0,004
1072,9	0,004
1073,3	0,003
1073,7	0,003
1074,2	0,005
1074,6	0,005
1075	0,007
1075,4	0,006
1075,8	0,006
1076,2	0,006
1076,6	0,006
1077	0,005
1077,5	0,004
1077,9	0,004
1078,3	0,003
1078,7	0,002
1079,1	0,003
1079,5	0,002
1079,9	0,002
1080,3	0,004
1080,7	0,003
1081,2	0,003
1081,6	0,004
1082	0,004
1082,4	0,006
1082,8	0,004
1083,2	0,001
1083,6	0,002
1084	0,003
1084,5	0,005
1084,9	0,004
1085,3	0,002
1085,7	0,004
1086,1	0,004
1086,5	0,004
1086,9	0,004
1087,3	0,003
1087,7	0,003
1088,2	0,005
1088,6	0,006
1089	0,006
1089,4	0,004
1089,8	0,001
1090,2	-0,002
1090,6	-0,001
1091	-0,001
1091,4	0
1091,9	0,002
1092,3	0,001
1092,7	0,004
1093,1	0,008
1093,5	0,007
1093,9	0,007
1094,3	0,006
1094,7	0,005
1095,1	0,008
1095,5	0,009
1096	0,013
1096,4	0,011
1096,8	0,007
1097,2	0,002
1097,6	0,004
1098	0,006
1098,4	0,003
1098,8	0,001
1099,2	0,005
1099,6	0,008
1100,1	0,016
1100,5	0,013
1100,9	0,008
1101,3	0,012
1101,7	0,016
1102,1	0,023
1102,5	0,033
1102,9	0,038
1103,3	0,044
1103,7	0,046
1104,2	0,053
1104,6	0,043
1105	0,047
1105,4	0,039
1105,8	0,04
1106,2	0,042
1106,6	0,043
1107	0,052
1107,4	0,063
1107,8	0,018
1108,3	-0,089
