Data from Absorbance_134.txt Node
Date: Fri Nov 13 19:16:55 MSK 2020
User: vat
Spectrometer: MAYP114033
Trigger mode: 0
Integration Time (sec): 8,000000E-3
Scans to average: 10
Electric dark correction enabled: true
Nonlinearity correction enabled: false
Boxcar width: 3
XAxis mode: Wavelengths
Number of Pixels in Spectrum: 2068
>>>>>Begin Spectral Data<<<<<
199,4	-0
199,9	0,736
200,4	0,404
200,8	0,26
201,3	0,186
201,8	0,109
202,2	0,085
202,7	0,1
203,2	0,072
203,6	0,061
204,1	0,065
204,6	0,061
205	0,054
205,5	0,055
206	0,039
206,4	0,04
206,9	0,039
207,4	0,024
207,8	0,026
208,3	0,024
208,8	0,019
209,2	0,029
209,7	0,029
210,2	0,02
210,6	0,024
211,1	0,026
211,5	0,038
212	0,053
212,5	0,055
212,9	0,081
213,4	0,087
213,9	0,102
214,3	0,106
214,8	0,103
215,3	0,098
215,7	0,097
216,2	0,069
216,7	0,065
217,1	0,05
217,6	0,041
218,1	0,031
218,5	0,027
219	0,018
219,5	0,021
219,9	0,028
220,4	0,039
220,9	0,047
221,3	0,05
221,8	0,051
222,3	0,063
222,7	0,073
223,2	0,086
223,6	0,081
224,1	0,08
224,6	0,089
225	0,099
225,5	0,097
226	0,094
226,4	0,078
226,9	0,082
227,4	0,081
227,8	0,083
228,3	0,078
228,8	0,076
229,2	0,07
229,7	0,071
230,2	0,058
230,6	0,046
231,1	0,055
231,5	0,05
232	0,044
232,5	0,053
232,9	0,059
233,4	0,084
233,9	0,089
234,3	0,087
234,8	0,099
235,3	0,111
235,7	0,111
236,2	0,137
236,7	0,118
237,1	0,136
237,6	0,131
238,1	0,122
238,5	0,109
239	0,119
239,4	0,106
239,9	0,11
240,4	0,113
240,8	0,112
241,3	0,134
241,8	0,14
242,2	0,14
242,7	0,135
243,2	0,13
243,6	0,127
244,1	0,134
244,6	0,13
245	0,129
245,5	0,126
245,9	0,132
246,4	0,148
246,9	0,145
247,3	0,145
247,8	0,152
248,3	0,16
248,7	0,173
249,2	0,183
249,7	0,189
250,1	0,192
250,6	0,193
251	0,191
251,5	0,196
252	0,191
252,4	0,191
252,9	0,188
253,4	0,191
253,8	0,195
254,3	0,201
254,8	0,201
255,2	0,206
255,7	0,212
256,1	0,218
256,6	0,222
257,1	0,226
257,5	0,23
258	0,236
258,5	0,241
258,9	0,247
259,4	0,253
259,9	0,259
260,3	0,266
260,8	0,273
261,2	0,28
261,7	0,288
262,2	0,296
262,6	0,303
263,1	0,312
263,6	0,319
264	0,326
264,5	0,334
264,9	0,342
265,4	0,35
265,9	0,357
266,3	0,365
266,8	0,374
267,3	0,382
267,7	0,391
268,2	0,399
268,7	0,407
269,1	0,417
269,6	0,426
270	0,435
270,5	0,445
271	0,453
271,4	0,46
271,9	0,467
272,4	0,475
272,8	0,482
273,3	0,49
273,7	0,496
274,2	0,503
274,7	0,511
275,1	0,518
275,6	0,525
276,1	0,531
276,5	0,537
277	0,543
277,4	0,55
277,9	0,555
278,4	0,559
278,8	0,562
279,3	0,566
279,8	0,57
280,2	0,573
280,7	0,575
281,1	0,578
281,6	0,58
282,1	0,581
282,5	0,582
283	0,581
283,4	0,58
283,9	0,578
284,4	0,577
284,8	0,574
285,3	0,572
285,8	0,569
286,2	0,567
286,7	0,563
287,1	0,56
287,6	0,555
288,1	0,549
288,5	0,544
289	0,537
289,5	0,529
289,9	0,521
290,4	0,514
290,8	0,505
291,3	0,497
291,8	0,488
292,2	0,479
292,7	0,469
293,1	0,46
293,6	0,449
294,1	0,438
294,5	0,427
295	0,416
295,5	0,405
295,9	0,394
296,4	0,382
296,8	0,37
297,3	0,359
297,8	0,347
298,2	0,335
298,7	0,323
299,1	0,312
299,6	0,301
300,1	0,29
300,5	0,279
301	0,268
301,5	0,258
301,9	0,247
302,4	0,237
302,8	0,227
303,3	0,217
303,8	0,208
304,2	0,2
304,7	0,191
305,1	0,182
305,6	0,175
306,1	0,167
306,5	0,16
307	0,152
307,4	0,145
307,9	0,139
308,4	0,133
308,8	0,127
309,3	0,122
309,8	0,116
310,2	0,112
310,7	0,107
311,1	0,103
311,6	0,098
312,1	0,094
312,5	0,09
313	0,087
313,4	0,084
313,9	0,08
314,4	0,077
314,8	0,074
315,3	0,071
315,7	0,069
316,2	0,066
316,7	0,064
317,1	0,062
317,6	0,06
318	0,058
318,5	0,058
319	0,056
319,4	0,054
319,9	0,053
320,3	0,052
320,8	0,05
321,3	0,049
321,7	0,048
322,2	0,047
322,6	0,047
323,1	0,046
323,6	0,045
324	0,044
324,5	0,043
324,9	0,042
325,4	0,042
325,9	0,041
326,3	0,04
326,8	0,04
327,2	0,039
327,7	0,04
328,2	0,039
328,6	0,039
329,1	0,038
329,5	0,038
330	0,037
330,5	0,037
330,9	0,037
331,4	0,037
331,8	0,036
332,3	0,036
332,8	0,036
333,2	0,035
333,7	0,035
334,1	0,034
334,6	0,034
335,1	0,034
335,5	0,034
336	0,033
336,4	0,034
336,9	0,033
337,4	0,033
337,8	0,033
338,3	0,033
338,7	0,033
339,2	0,033
339,7	0,032
340,1	0,032
340,6	0,032
341	0,032
341,5	0,032
342	0,031
342,4	0,031
342,9	0,031
343,3	0,031
343,8	0,031
344,2	0,03
344,7	0,03
345,2	0,03
345,6	0,03
346,1	0,03
346,5	0,03
347	0,03
347,5	0,03
347,9	0,03
348,4	0,03
348,8	0,029
349,3	0,029
349,8	0,028
350,2	0,028
350,7	0,028
351,1	0,027
351,6	0,028
352	0,027
352,5	0,028
353	0,027
353,4	0,027
353,9	0,027
354,3	0,026
354,8	0,026
355,3	0,026
355,7	0,025
356,2	0,025
356,6	0,025
357,1	0,026
357,5	0,026
358	0,026
358,5	0,026
358,9	0,026
359,4	0,025
359,8	0,025
360,3	0,025
360,8	0,025
361,2	0,025
361,7	0,025
362,1	0,025
362,6	0,024
363	0,025
363,5	0,025
364	0,024
364,4	0,024
364,9	0,023
365,3	0,024
365,8	0,024
366,3	0,024
366,7	0,024
367,2	0,023
367,6	0,023
368,1	0,023
368,5	0,022
369	0,022
369,5	0,021
369,9	0,021
370,4	0,022
370,8	0,022
371,3	0,022
371,7	0,022
372,2	0,022
372,7	0,022
373,1	0,022
373,6	0,022
374	0,022
374,5	0,022
374,9	0,022
375,4	0,022
375,9	0,022
376,3	0,022
376,8	0,022
377,2	0,021
377,7	0,021
378,2	0,021
378,6	0,02
379,1	0,02
379,5	0,02
380	0,02
380,4	0,02
380,9	0,019
381,4	0,019
381,8	0,018
382,3	0,018
382,7	0,018
383,2	0,018
383,6	0,018
384,1	0,018
384,6	0,019
385	0,019
385,5	0,019
385,9	0,019
386,4	0,019
386,8	0,019
387,3	0,018
387,7	0,019
388,2	0,019
388,7	0,02
389,1	0,02
389,6	0,02
390	0,019
390,5	0,019
390,9	0,019
391,4	0,018
391,9	0,018
392,3	0,018
392,8	0,017
393,2	0,017
393,7	0,017
394,1	0,017
394,6	0,017
395,1	0,017
395,5	0,017
396	0,017
396,4	0,017
396,9	0,017
397,3	0,017
397,8	0,017
398,2	0,016
398,7	0,017
399,2	0,017
399,6	0,017
400,1	0,017
400,5	0,017
401	0,017
401,4	0,016
401,9	0,016
402,4	0,016
402,8	0,016
403,3	0,016
403,7	0,015
404,2	0,016
404,6	0,016
405,1	0,016
405,5	0,016
406	0,016
406,5	0,016
406,9	0,016
407,4	0,015
407,8	0,015
408,3	0,015
408,7	0,015
409,2	0,015
409,6	0,015
410,1	0,015
410,6	0,014
411	0,015
411,5	0,015
411,9	0,014
412,4	0,014
412,8	0,014
413,3	0,014
413,7	0,014
414,2	0,014
414,7	0,015
415,1	0,015
415,6	0,015
416	0,014
416,5	0,015
416,9	0,015
417,4	0,015
417,8	0,014
418,3	0,014
418,8	0,015
419,2	0,015
419,7	0,014
420,1	0,015
420,6	0,014
421	0,015
421,5	0,015
421,9	0,015
422,4	0,015
422,8	0,015
423,3	0,015
423,8	0,015
424,2	0,014
424,7	0,014
425,1	0,014
425,6	0,013
426	0,013
426,5	0,013
426,9	0,013
427,4	0,013
427,9	0,013
428,3	0,013
428,8	0,013
429,2	0,013
429,7	0,012
430,1	0,012
430,6	0,012
431	0,013
431,5	0,013
431,9	0,013
432,4	0,014
432,8	0,013
433,3	0,014
433,8	0,013
434,2	0,013
434,7	0,013
435,1	0,013
435,6	0,013
436	0,013
436,5	0,012
436,9	0,012
437,4	0,012
437,8	0,012
438,3	0,011
438,8	0,012
439,2	0,012
439,7	0,012
440,1	0,012
440,6	0,012
441	0,012
441,5	0,012
441,9	0,012
442,4	0,012
442,8	0,012
443,3	0,012
443,7	0,012
444,2	0,012
444,7	0,012
445,1	0,012
445,6	0,012
446	0,013
446,5	0,012
446,9	0,012
447,4	0,012
447,8	0,012
448,3	0,012
448,7	0,012
449,2	0,012
449,6	0,012
450,1	0,012
450,6	0,012
451	0,012
451,5	0,012
451,9	0,012
452,4	0,012
452,8	0,012
453,3	0,012
453,7	0,012
454,2	0,012
454,6	0,012
455,1	0,012
455,5	0,012
456	0,012
456,4	0,012
456,9	0,011
457,3	0,011
457,8	0,011
458,3	0,011
458,7	0,01
459,2	0,011
459,6	0,011
460,1	0,011
460,5	0,011
461	0,011
461,4	0,011
461,9	0,011
462,3	0,011
462,8	0,011
463,2	0,011
463,7	0,011
464,1	0,011
464,6	0,01
465	0,01
465,5	0,01
466	0,01
466,4	0,01
466,9	0,01
467,3	0,01
467,8	0,011
468,2	0,01
468,7	0,011
469,1	0,011
469,6	0,011
470	0,011
470,5	0,011
470,9	0,011
471,4	0,011
471,8	0,011
472,3	0,011
472,7	0,01
473,2	0,011
473,6	0,011
474,1	0,01
474,5	0,01
475	0,01
475,4	0,01
475,9	0,01
476,4	0,01
476,8	0,01
477,3	0,01
477,7	0,01
478,2	0,01
478,6	0,01
479,1	0,01
479,5	0,01
480	0,011
480,4	0,01
480,9	0,011
481,3	0,01
481,8	0,01
482,2	0,01
482,7	0,01
483,1	0,009
483,6	0,009
484	0,009
484,5	0,009
484,9	0,009
485,4	0,01
485,8	0,01
486,3	0,009
486,7	0,01
487,2	0,01
487,6	0,01
488,1	0,009
488,5	0,009
489	0,009
489,4	0,009
489,9	0,009
490,4	0,008
490,8	0,009
491,3	0,009
491,7	0,009
492,2	0,009
492,6	0,01
493,1	0,01
493,5	0,01
494	0,01
494,4	0,01
494,9	0,01
495,3	0,01
495,8	0,009
496,2	0,009
496,7	0,009
497,1	0,009
497,6	0,009
498	0,009
498,5	0,009
498,9	0,009
499,4	0,009
499,8	0,009
500,3	0,008
500,7	0,008
501,2	0,008
501,6	0,008
502,1	0,008
502,5	0,008
503	0,008
503,4	0,009
503,9	0,009
504,3	0,009
504,8	0,009
505,2	0,009
505,7	0,009
506,1	0,009
506,6	0,008
507	0,008
507,5	0,008
507,9	0,008
508,4	0,008
508,8	0,008
509,3	0,008
509,7	0,009
510,2	0,009
510,6	0,009
511,1	0,009
511,5	0,009
512	0,009
512,4	0,009
512,9	0,009
513,3	0,009
513,8	0,008
514,2	0,008
514,7	0,009
515,1	0,009
515,6	0,009
516	0,009
516,5	0,009
516,9	0,009
517,4	0,008
517,8	0,008
518,3	0,008
518,7	0,008
519,2	0,009
519,6	0,009
520,1	0,009
520,5	0,009
521	0,009
521,4	0,009
521,9	0,009
522,3	0,009
522,8	0,008
523,2	0,008
523,7	0,008
524,1	0,008
524,6	0,008
525	0,008
525,5	0,008
525,9	0,008
526,4	0,008
526,8	0,008
527,3	0,008
527,7	0,007
528,2	0,007
528,6	0,007
529,1	0,007
529,5	0,007
530	0,007
530,4	0,007
530,9	0,008
531,3	0,008
531,8	0,008
532,2	0,008
532,6	0,008
533,1	0,008
533,5	0,008
534	0,008
534,4	0,008
534,9	0,008
535,3	0,009
535,8	0,008
536,2	0,007
536,7	0,008
537,1	0,008
537,6	0,008
538	0,008
538,5	0,008
538,9	0,009
539,4	0,009
539,8	0,009
540,3	0,009
540,7	0,009
541,2	0,008
541,6	0,008
542,1	0,007
542,5	0,007
543	0,007
543,4	0,007
543,9	0,007
544,3	0,007
544,8	0,007
545,2	0,007
545,7	0,008
546,1	0,008
546,5	0,008
547	0,008
547,4	0,008
547,9	0,008
548,3	0,008
548,8	0,008
549,2	0,008
549,7	0,008
550,1	0,008
550,6	0,008
551	0,008
551,5	0,008
551,9	0,008
552,4	0,008
552,8	0,008
553,3	0,007
553,7	0,007
554,2	0,007
554,6	0,007
555,1	0,006
555,5	0,006
555,9	0,007
556,4	0,007
556,8	0,007
557,3	0,008
557,7	0,008
558,2	0,008
558,6	0,008
559,1	0,008
559,5	0,008
560	0,007
560,4	0,007
560,9	0,007
561,3	0,007
561,8	0,007
562,2	0,007
562,7	0,007
563,1	0,007
563,6	0,007
564	0,007
564,4	0,007
564,9	0,007
565,3	0,007
565,8	0,007
566,2	0,007
566,7	0,006
567,1	0,006
567,6	0,007
568	0,007
568,5	0,007
568,9	0,007
569,4	0,007
569,8	0,007
570,3	0,007
570,7	0,007
571,1	0,007
571,6	0,007
572	0,007
572,5	0,007
572,9	0,007
573,4	0,008
573,8	0,007
574,3	0,007
574,7	0,007
575,2	0,007
575,6	0,007
576,1	0,007
576,5	0,007
576,9	0,007
577,4	0,007
577,8	0,007
578,3	0,007
578,7	0,007
579,2	0,007
579,6	0,007
580,1	0,007
580,5	0,007
581	0,007
581,4	0,007
581,9	0,007
582,3	0,007
582,7	0,007
583,2	0,007
583,6	0,007
584,1	0,007
584,5	0,007
585	0,008
585,4	0,008
585,9	0,008
586,3	0,008
586,8	0,008
587,2	0,007
587,6	0,007
588,1	0,007
588,5	0,007
589	0,007
589,4	0,008
589,9	0,008
590,3	0,008
590,8	0,008
591,2	0,007
591,7	0,007
592,1	0,007
592,5	0,007
593	0,007
593,4	0,007
593,9	0,007
594,3	0,007
594,8	0,007
595,2	0,007
595,7	0,007
596,1	0,007
596,6	0,007
597	0,007
597,4	0,007
597,9	0,007
598,3	0,007
598,8	0,007
599,2	0,007
599,7	0,007
600,1	0,007
600,6	0,007
601	0,007
601,4	0,007
601,9	0,007
602,3	0,007
602,8	0,007
603,2	0,007
603,7	0,007
604,1	0,007
604,6	0,007
605	0,007
605,4	0,007
605,9	0,007
606,3	0,007
606,8	0,007
607,2	0,007
607,7	0,007
608,1	0,007
608,6	0,006
609	0,006
609,4	0,006
609,9	0,006
610,3	0,006
610,8	0,006
611,2	0,006
611,7	0,006
612,1	0,006
612,6	0,007
613	0,007
613,4	0,007
613,9	0,006
614,3	0,007
614,8	0,006
615,2	0,006
615,7	0,006
616,1	0,006
616,6	0,006
617	0,007
617,4	0,007
617,9	0,007
618,3	0,007
618,8	0,007
619,2	0,007
619,7	0,007
620,1	0,007
620,5	0,007
621	0,007
621,4	0,007
621,9	0,007
622,3	0,008
622,8	0,007
623,2	0,007
623,6	0,008
624,1	0,008
624,5	0,007
625	0,007
625,4	0,006
625,9	0,007
626,3	0,006
626,8	0,006
627,2	0,006
627,6	0,007
628,1	0,007
628,5	0,007
629	0,007
629,4	0,007
629,9	0,008
630,3	0,007
630,7	0,007
631,2	0,007
631,6	0,006
632,1	0,006
632,5	0,006
633	0,005
633,4	0,006
633,8	0,006
634,3	0,006
634,7	0,007
635,2	0,007
635,6	0,007
636,1	0,007
636,5	0,007
636,9	0,007
637,4	0,006
637,8	0,006
638,3	0,006
638,7	0,006
639,2	0,007
639,6	0,007
640	0,007
640,5	0,007
640,9	0,007
641,4	0,007
641,8	0,007
642,2	0,007
642,7	0,007
643,1	0,007
643,6	0,007
644	0,006
644,5	0,006
644,9	0,006
645,3	0,007
645,8	0,006
646,2	0,006
646,7	0,006
647,1	0,006
647,6	0,006
648	0,006
648,4	0,006
648,9	0,006
649,3	0,006
649,8	0,006
650,2	0,007
650,6	0,007
651,1	0,006
651,5	0,006
652	0,007
652,4	0,006
652,9	0,006
653,3	0,005
653,7	0,004
654,2	0,002
654,6	0,002
655,1	0,001
655,5	0,003
655,9	0,003
656,4	0,003
656,8	0,003
657,3	0,005
657,7	0,006
658,2	0,009
658,6	0,007
659	0,006
659,5	0,006
659,9	0,005
660,4	0,005
660,8	0,005
661,2	0,005
661,7	0,005
662,1	0,005
662,6	0,005
663	0,005
663,4	0,005
663,9	0,005
664,3	0,005
664,8	0,006
665,2	0,006
665,6	0,005
666,1	0,005
666,5	0,006
667	0,006
667,4	0,006
667,9	0,006
668,3	0,006
668,7	0,006
669,2	0,006
669,6	0,006
670,1	0,006
670,5	0,007
670,9	0,007
671,4	0,007
671,8	0,007
672,3	0,006
672,7	0,006
673,1	0,006
673,6	0,006
674	0,006
674,5	0,006
674,9	0,005
675,3	0,006
675,8	0,006
676,2	0,006
676,7	0,006
677,1	0,006
677,5	0,006
678	0,006
678,4	0,006
678,9	0,006
679,3	0,005
679,7	0,005
680,2	0,005
680,6	0,005
681,1	0,005
681,5	0,006
681,9	0,006
682,4	0,006
682,8	0,006
683,3	0,007
683,7	0,006
684,1	0,006
684,6	0,006
685	0,006
685,5	0,006
685,9	0,006
686,3	0,006
686,8	0,006
687,2	0,006
687,7	0,006
688,1	0,006
688,5	0,006
689	0,006
689,4	0,006
689,9	0,006
690,3	0,006
690,7	0,006
691,2	0,006
691,6	0,005
692	0,005
692,5	0,005
692,9	0,005
693,4	0,005
693,8	0,005
694,2	0,005
694,7	0,006
695,1	0,006
695,6	0,006
696	0,006
696,4	0,006
696,9	0,006
697,3	0,006
697,8	0,006
698,2	0,006
698,6	0,006
699,1	0,006
699,5	0,006
699,9	0,006
700,4	0,006
700,8	0,005
701,3	0,005
701,7	0,005
702,1	0,005
702,6	0,005
703	0,005
703,5	0,005
703,9	0,006
704,3	0,006
704,8	0,006
705,2	0,006
705,6	0,006
706,1	0,006
706,5	0,006
707	0,006
707,4	0,006
707,8	0,006
708,3	0,006
708,7	0,006
709,2	0,006
709,6	0,006
710	0,005
710,5	0,005
710,9	0,005
711,3	0,006
711,8	0,006
712,2	0,006
712,7	0,005
713,1	0,005
713,5	0,006
714	0,006
714,4	0,006
714,8	0,006
715,3	0,006
715,7	0,006
716,2	0,006
716,6	0,005
717	0,005
717,5	0,005
717,9	0,005
718,3	0,005
718,8	0,005
719,2	0,005
719,7	0,006
720,1	0,006
720,5	0,006
721	0,006
721,4	0,006
721,8	0,006
722,3	0,006
722,7	0,005
723,2	0,006
723,6	0,006
724	0,005
724,5	0,006
724,9	0,006
725,3	0,006
725,8	0,006
726,2	0,006
726,7	0,006
727,1	0,006
727,5	0,006
728	0,006
728,4	0,006
728,8	0,006
729,3	0,006
729,7	0,006
730,1	0,006
730,6	0,006
731	0,006
731,5	0,006
731,9	0,006
732,3	0,006
732,8	0,006
733,2	0,006
733,6	0,006
734,1	0,006
734,5	0,006
734,9	0,006
735,4	0,006
735,8	0,006
736,3	0,006
736,7	0,006
737,1	0,006
737,6	0,006
738	0,006
738,4	0,006
738,9	0,006
739,3	0,006
739,7	0,006
740,2	0,006
740,6	0,006
741,1	0,006
741,5	0,005
741,9	0,005
742,4	0,006
742,8	0,006
743,2	0,006
743,7	0,005
744,1	0,005
744,5	0,005
745	0,005
745,4	0,005
745,8	0,005
746,3	0,005
746,7	0,005
747,2	0,005
747,6	0,005
748	0,005
748,5	0,005
748,9	0,005
749,3	0,005
749,8	0,005
750,2	0,006
750,6	0,006
751,1	0,006
751,5	0,006
751,9	0,006
752,4	0,006
752,8	0,006
753,3	0,006
753,7	0,006
754,1	0,005
754,6	0,006
755	0,005
755,4	0,005
755,9	0,005
756,3	0,005
756,7	0,005
757,2	0,005
757,6	0,005
758	0,006
758,5	0,005
758,9	0,005
759,3	0,005
759,8	0,005
760,2	0,005
760,6	0,005
761,1	0,005
761,5	0,006
761,9	0,006
762,4	0,006
762,8	0,006
763,3	0,006
763,7	0,006
764,1	0,006
764,6	0,006
765	0,007
765,4	0,007
765,9	0,006
766,3	0,006
766,7	0,006
767,2	0,006
767,6	0,006
768	0,006
768,5	0,006
768,9	0,006
769,3	0,006
769,8	0,006
770,2	0,006
770,6	0,006
771,1	0,005
771,5	0,005
771,9	0,005
772,4	0,005
772,8	0,005
773,2	0,005
773,7	0,005
774,1	0,005
774,5	0,005
775	0,005
775,4	0,005
775,8	0,005
776,3	0,005
776,7	0,005
777,1	0,005
777,6	0,006
778	0,005
778,4	0,005
778,9	0,005
779,3	0,005
779,7	0,005
780,2	0,005
780,6	0,006
781	0,006
781,5	0,006
781,9	0,006
782,3	0,006
782,8	0,006
783,2	0,006
783,6	0,005
784,1	0,005
784,5	0,005
784,9	0,004
785,4	0,005
785,8	0,005
786,2	0,005
786,7	0,005
787,1	0,005
787,5	0,005
788	0,006
788,4	0,006
788,8	0,006
789,3	0,006
789,7	0,006
790,1	0,006
790,6	0,006
791	0,006
791,4	0,006
791,9	0,006
792,3	0,006
792,7	0,006
793,2	0,006
793,6	0,006
794	0,007
794,5	0,007
794,9	0,007
795,3	0,007
795,8	0,007
796,2	0,007
796,6	0,006
797,1	0,006
797,5	0,006
797,9	0,006
798,4	0,006
798,8	0,005
799,2	0,006
799,7	0,005
800,1	0,005
800,5	0,005
801	0,005
801,4	0,006
801,8	0,006
802,2	0,006
802,7	0,006
803,1	0,006
803,5	0,006
804	0,006
804,4	0,006
804,8	0,006
805,3	0,006
805,7	0,006
806,1	0,006
806,6	0,006
807	0,006
807,4	0,006
807,9	0,007
808,3	0,006
808,7	0,006
809,2	0,006
809,6	0,007
810	0,007
810,4	0,007
810,9	0,007
811,3	0,007
811,7	0,007
812,2	0,006
812,6	0,006
813	0,006
813,5	0,006
813,9	0,005
814,3	0,005
814,8	0,005
815,2	0,005
815,6	0,005
816,1	0,005
816,5	0,004
816,9	0,005
817,3	0,005
817,8	0,005
818,2	0,005
818,6	0,005
819,1	0,005
819,5	0,005
819,9	0,005
820,4	0,005
820,8	0,005
821,2	0,005
821,7	0,005
822,1	0,005
822,5	0,005
822,9	0,005
823,4	0,004
823,8	0,005
824,2	0,005
824,7	0,005
825,1	0,006
825,5	0,006
826	0,006
826,4	0,006
826,8	0,006
827,3	0,005
827,7	0,005
828,1	0,005
828,5	0,005
829	0,005
829,4	0,005
829,8	0,005
830,3	0,005
830,7	0,005
831,1	0,005
831,6	0,005
832	0,005
832,4	0,005
832,8	0,005
833,3	0,005
833,7	0,005
834,1	0,005
834,6	0,005
835	0,005
835,4	0,005
835,8	0,005
836,3	0,005
836,7	0,005
837,1	0,004
837,6	0,004
838	0,005
838,4	0,005
838,9	0,004
839,3	0,005
839,7	0,004
840,1	0,005
840,6	0,004
841	0,005
841,4	0,005
841,9	0,005
842,3	0,005
842,7	0,005
843,1	0,005
843,6	0,005
844	0,005
844,4	0,006
844,9	0,006
845,3	0,006
845,7	0,006
846,2	0,006
846,6	0,005
847	0,005
847,4	0,005
847,9	0,005
848,3	0,005
848,7	0,005
849,2	0,005
849,6	0,006
850	0,006
850,4	0,006
850,9	0,006
851,3	0,006
851,7	0,006
852,2	0,006
852,6	0,006
853	0,006
853,4	0,006
853,9	0,006
854,3	0,006
854,7	0,006
855,2	0,006
855,6	0,006
856	0,006
856,4	0,006
856,9	0,006
857,3	0,006
857,7	0,006
858,2	0,006
858,6	0,006
859	0,006
859,4	0,006
859,9	0,005
860,3	0,005
860,7	0,005
861,1	0,005
861,6	0,005
862	0,005
862,4	0,005
862,9	0,005
863,3	0,005
863,7	0,006
864,1	0,006
864,6	0,006
865	0,006
865,4	0,006
865,9	0,006
866,3	0,006
866,7	0,006
867,1	0,006
867,6	0,006
868	0,006
868,4	0,006
868,8	0,007
869,3	0,006
869,7	0,006
870,1	0,006
870,6	0,006
871	0,006
871,4	0,006
871,8	0,006
872,3	0,006
872,7	0,006
873,1	0,006
873,5	0,006
874	0,006
874,4	0,006
874,8	0,006
875,3	0,006
875,7	0,006
876,1	0,006
876,5	0,005
877	0,006
877,4	0,006
877,8	0,006
878,2	0,006
878,7	0,006
879,1	0,006
879,5	0,005
879,9	0,005
880,4	0,005
880,8	0,005
881,2	0,006
881,7	0,006
882,1	0,007
882,5	0,007
882,9	0,007
883,4	0,007
883,8	0,007
884,2	0,006
884,6	0,006
885,1	0,006
885,5	0,006
885,9	0,005
886,3	0,005
886,8	0,005
887,2	0,005
887,6	0,006
888	0,006
888,5	0,005
888,9	0,006
889,3	0,006
889,8	0,006
890,2	0,006
890,6	0,005
891	0,006
891,5	0,006
891,9	0,006
892,3	0,006
892,7	0,006
893,2	0,006
893,6	0,006
894	0,006
894,4	0,006
894,9	0,006
895,3	0,006
895,7	0,006
896,1	0,005
896,6	0,005
897	0,005
897,4	0,005
897,8	0,005
898,3	0,005
898,7	0,005
899,1	0,005
899,5	0,005
900	0,005
900,4	0,005
900,8	0,005
901,2	0,005
901,7	0,005
902,1	0,005
902,5	0,005
902,9	0,006
903,4	0,006
903,8	0,006
904,2	0,006
904,6	0,006
905,1	0,006
905,5	0,006
905,9	0,006
906,3	0,006
906,8	0,006
907,2	0,006
907,6	0,006
908	0,006
908,5	0,006
908,9	0,007
909,3	0,007
909,7	0,007
910,2	0,007
910,6	0,007
911	0,007
911,4	0,007
911,9	0,007
912,3	0,007
912,7	0,006
913,1	0,006
913,6	0,006
914	0,006
914,4	0,006
914,8	0,006
915,3	0,006
915,7	0,006
916,1	0,005
916,5	0,005
916,9	0,005
917,4	0,004
917,8	0,004
918,2	0,004
918,6	0,004
919,1	0,004
919,5	0,004
919,9	0,004
920,3	0,004
920,8	0,004
921,2	0,004
921,6	0,004
922	0,005
922,5	0,005
922,9	0,006
923,3	0,005
923,7	0,005
924,2	0,005
924,6	0,005
925	0,004
925,4	0,004
925,8	0,004
926,3	0,004
926,7	0,005
927,1	0,005
927,5	0,005
928	0,005
928,4	0,005
928,8	0,006
929,2	0,006
929,7	0,006
930,1	0,007
930,5	0,007
930,9	0,007
931,3	0,007
931,8	0,007
932,2	0,007
932,6	0,007
933	0,007
933,5	0,007
933,9	0,007
934,3	0,007
934,7	0,007
935,2	0,007
935,6	0,006
936	0,006
936,4	0,005
936,8	0,005
937,3	0,005
937,7	0,005
938,1	0,005
938,5	0,005
939	0,005
939,4	0,005
939,8	0,005
940,2	0,005
940,6	0,005
941,1	0,005
941,5	0,006
941,9	0,006
942,3	0,006
942,8	0,006
943,2	0,007
943,6	0,007
944	0,007
944,4	0,007
944,9	0,007
945,3	0,006
945,7	0,006
946,1	0,006
946,6	0,005
947	0,005
947,4	0,005
947,8	0,005
948,2	0,005
948,7	0,006
949,1	0,006
949,5	0,006
949,9	0,006
950,3	0,006
950,8	0,006
951,2	0,005
951,6	0,005
952	0,005
952,5	0,005
952,9	0,005
953,3	0,005
953,7	0,006
954,1	0,006
954,6	0,006
955	0,005
955,4	0,005
955,8	0,006
956,2	0,006
956,7	0,006
957,1	0,006
957,5	0,006
957,9	0,006
958,3	0,006
958,8	0,006
959,2	0,006
959,6	0,006
960	0,006
960,5	0,006
960,9	0,005
961,3	0,006
961,7	0,006
962,1	0,006
962,6	0,006
963	0,006
963,4	0,007
963,8	0,008
964,2	0,008
964,7	0,008
965,1	0,008
965,5	0,008
965,9	0,008
966,3	0,008
966,8	0,007
967,2	0,007
967,6	0,006
968	0,006
968,4	0,006
968,9	0,007
969,3	0,006
969,7	0,006
970,1	0,006
970,5	0,006
971	0,006
971,4	0,005
971,8	0,005
972,2	0,005
972,6	0,005
973,1	0,005
973,5	0,005
973,9	0,005
974,3	0,006
974,7	0,006
975,2	0,006
975,6	0,006
976	0,006
976,4	0,005
976,8	0,006
977,3	0,005
977,7	0,005
978,1	0,005
978,5	0,005
978,9	0,005
979,4	0,005
979,8	0,005
980,2	0,005
980,6	0,006
981	0,005
981,5	0,005
981,9	0,006
982,3	0,005
982,7	0,005
983,1	0,005
983,6	0,005
984	0,005
984,4	0,006
984,8	0,006
985,2	0,006
985,6	0,006
986,1	0,006
986,5	0,007
986,9	0,007
987,3	0,007
987,7	0,007
988,2	0,007
988,6	0,007
989	0,006
989,4	0,006
989,8	0,005
990,3	0,005
990,7	0,005
991,1	0,004
991,5	0,004
991,9	0,004
992,3	0,005
992,8	0,005
993,2	0,004
993,6	0,004
994	0,005
994,4	0,005
994,9	0,004
995,3	0,004
995,7	0,004
996,1	0,005
996,5	0,005
996,9	0,006
997,4	0,006
997,8	0,006
998,2	0,006
998,6	0,006
999	0,005
999,5	0,005
999,9	0,005
1000,3	0,005
1000,7	0,005
1001,1	0,005
1001,5	0,005
1002	0,005
1002,4	0,006
1002,8	0,006
1003,2	0,006
1003,6	0,005
1004	0,005
1004,5	0,006
1004,9	0,006
1005,3	0,007
1005,7	0,007
1006,1	0,007
1006,6	0,007
1007	0,007
1007,4	0,006
1007,8	0,006
1008,2	0,005
1008,6	0,005
1009,1	0,005
1009,5	0,005
1009,9	0,006
1010,3	0,006
1010,7	0,006
1011,1	0,006
1011,6	0,006
1012	0,006
1012,4	0,006
1012,8	0,006
1013,2	0,006
1013,6	0,006
1014,1	0,006
1014,5	0,006
1014,9	0,007
1015,3	0,006
1015,7	0,006
1016,1	0,006
1016,6	0,006
1017	0,005
1017,4	0,006
1017,8	0,006
1018,2	0,005
1018,6	0,005
1019,1	0,006
1019,5	0,005
1019,9	0,005
1020,3	0,005
1020,7	0,004
1021,1	0,005
1021,6	0,005
1022	0,004
1022,4	0,005
1022,8	0,005
1023,2	0,006
1023,6	0,006
1024,1	0,006
1024,5	0,005
1024,9	0,006
1025,3	0,005
1025,7	0,005
1026,1	0,004
1026,6	0,004
1027	0,004
1027,4	0,004
1027,8	0,004
1028,2	0,004
1028,6	0,004
1029	0,005
1029,5	0,004
1029,9	0,004
1030,3	0,005
1030,7	0,005
1031,1	0,006
1031,5	0,006
1032	0,006
1032,4	0,006
1032,8	0,006
1033,2	0,006
1033,6	0,005
1034	0,004
1034,4	0,004
1034,9	0,003
1035,3	0,004
1035,7	0,004
1036,1	0,004
1036,5	0,005
1036,9	0,005
1037,4	0,005
1037,8	0,005
1038,2	0,006
1038,6	0,005
1039	0,005
1039,4	0,005
1039,8	0,005
1040,3	0,004
1040,7	0,004
1041,1	0,004
1041,5	0,004
1041,9	0,004
1042,3	0,004
1042,7	0,004
1043,2	0,005
1043,6	0,005
1044	0,005
1044,4	0,005
1044,8	0,004
1045,2	0,003
1045,6	0,004
1046,1	0,003
1046,5	0,003
1046,9	0,003
1047,3	0,004
1047,7	0,003
1048,1	0,003
1048,5	0,003
1049	0,003
1049,4	0,003
1049,8	0,002
1050,2	0,001
1050,6	0,002
1051	0,003
1051,4	0,003
1051,9	0,004
1052,3	0,004
1052,7	0,005
1053,1	0,005
1053,5	0,005
1053,9	0,006
1054,3	0,006
1054,8	0,005
1055,2	0,005
1055,6	0,005
1056	0,005
1056,4	0,005
1056,8	0,004
1057,2	0,004
1057,6	0,004
1058,1	0,004
1058,5	0,004
1058,9	0,003
1059,3	0,004
1059,7	0,004
1060,1	0,005
1060,5	0,005
1061	0,005
1061,4	0,004
1061,8	0,004
1062,2	0,004
1062,6	0,004
1063	0,005
1063,4	0,003
1063,8	0,003
1064,3	0,004
1064,7	0,003
1065,1	0,003
1065,5	0,003
1065,9	0,002
1066,3	0,002
1066,7	0,002
1067,1	0,003
1067,6	0,004
1068	0,003
1068,4	0,003
1068,8	0,003
1069,2	0,004
1069,6	0,004
1070	0,005
1070,4	0,006
1070,9	0,006
1071,3	0,006
1071,7	0,006
1072,1	0,005
1072,5	0,005
1072,9	0,003
1073,3	0,002
1073,7	0,002
1074,2	0,003
1074,6	0,002
1075	0,003
1075,4	0,003
1075,8	0,004
1076,2	0,005
1076,6	0,006
1077	0,005
1077,5	0,005
1077,9	0,005
1078,3	0,006
1078,7	0,006
1079,1	0,006
1079,5	0,004
1079,9	0,005
1080,3	0,005
1080,7	0,006
1081,2	0,005
1081,6	0,005
1082	0,006
1082,4	0,008
1082,8	0,006
1083,2	0,007
1083,6	0,006
1084	0,005
1084,5	0,005
1084,9	0,006
1085,3	0,006
1085,7	0,006
1086,1	0,005
1086,5	0,006
1086,9	0,006
1087,3	0,007
1087,7	0,006
1088,2	0,005
1088,6	0,004
1089	0,006
1089,4	0,004
1089,8	0,008
1090,2	0,006
1090,6	0,006
1091	0,007
1091,4	0,006
1091,9	0,005
1092,3	0,005
1092,7	0,002
1093,1	0,004
1093,5	0,001
1093,9	-0,002
1094,3	-0,003
1094,7	-0,004
1095,1	-0,003
1095,5	-0,006
1096	-0,005
1096,4	-0,004
1096,8	-0,005
1097,2	0,003
1097,6	0,008
1098	0,009
1098,4	0,011
1098,8	0,008
1099,2	0,013
1099,6	0,023
1100,1	0,027
1100,5	0,027
1100,9	0,023
1101,3	0,028
1101,7	0,033
1102,1	0,039
1102,5	0,031
1102,9	0,023
1103,3	0,012
1103,7	0,02
1104,2	0,017
1104,6	0,006
1105	-0,013
1105,4	-0,009
1105,8	-0,008
1106,2	0,002
1106,6	0,009
1107	0,005
1107,4	0,029
1107,8	0,093
1108,3	-0
