Data from Absorbance_076.txt Node
Date: Fri Nov 13 14:30:06 MSK 2020
User: vat
Spectrometer: MAYP114033
Trigger mode: 0
Integration Time (sec): 8,000000E-3
Scans to average: 10
Electric dark correction enabled: true
Nonlinearity correction enabled: false
Boxcar width: 3
XAxis mode: Wavelengths
Number of Pixels in Spectrum: 2068
>>>>>Begin Spectral Data<<<<<
199,4	-0
199,9	1,132
200,4	0,321
200,8	0,272
201,3	0,111
201,8	0,152
202,2	0,155
202,7	0,148
203,2	0,158
203,6	0,158
204,1	0,155
204,6	0,162
205	0,155
205,5	0,146
206	0,132
206,4	0,131
206,9	0,151
207,4	0,143
207,8	0,137
208,3	0,135
208,8	0,131
209,2	0,127
209,7	0,146
210,2	0,136
210,6	0,139
211,1	0,163
211,5	0,165
212	0,2
212,5	0,226
212,9	0,22
213,4	0,215
213,9	0,217
214,3	0,196
214,8	0,206
215,3	0,184
215,7	0,163
216,2	0,165
216,7	0,175
217,1	0,187
217,6	0,19
218,1	0,184
218,5	0,202
219	0,219
219,5	0,211
219,9	0,193
220,4	0,162
220,9	0,159
221,3	0,167
221,8	0,155
222,3	0,147
222,7	0,15
223,2	0,171
223,6	0,2
224,1	0,197
224,6	0,187
225	0,194
225,5	0,196
226	0,186
226,4	0,17
226,9	0,132
227,4	0,137
227,8	0,142
228,3	0,14
228,8	0,16
229,2	0,181
229,7	0,196
230,2	0,223
230,6	0,238
231,1	0,238
231,5	0,227
232	0,209
232,5	0,216
232,9	0,22
233,4	0,229
233,9	0,23
234,3	0,237
234,8	0,249
235,3	0,258
235,7	0,224
236,2	0,228
236,7	0,234
237,1	0,231
237,6	0,223
238,1	0,225
238,5	0,224
239	0,244
239,4	0,237
239,9	0,24
240,4	0,241
240,8	0,261
241,3	0,274
241,8	0,266
242,2	0,265
242,7	0,264
243,2	0,262
243,6	0,273
244,1	0,284
244,6	0,274
245	0,293
245,5	0,302
245,9	0,297
246,4	0,3
246,9	0,304
247,3	0,29
247,8	0,293
248,3	0,293
248,7	0,293
249,2	0,303
249,7	0,31
250,1	0,312
250,6	0,313
251	0,324
251,5	0,33
252	0,332
252,4	0,335
252,9	0,337
253,4	0,341
253,8	0,343
254,3	0,346
254,8	0,35
255,2	0,355
255,7	0,36
256,1	0,366
256,6	0,37
257,1	0,377
257,5	0,383
258	0,389
258,5	0,396
258,9	0,404
259,4	0,412
259,9	0,422
260,3	0,431
260,8	0,44
261,2	0,451
261,7	0,46
262,2	0,47
262,6	0,479
263,1	0,489
263,6	0,499
264	0,511
264,5	0,522
264,9	0,534
265,4	0,545
265,9	0,556
266,3	0,568
266,8	0,579
267,3	0,589
267,7	0,598
268,2	0,609
268,7	0,62
269,1	0,631
269,6	0,641
270	0,652
270,5	0,664
271	0,676
271,4	0,686
271,9	0,697
272,4	0,708
272,8	0,718
273,3	0,727
273,7	0,736
274,2	0,745
274,7	0,755
275,1	0,763
275,6	0,772
276,1	0,78
276,5	0,787
277	0,795
277,4	0,802
277,9	0,808
278,4	0,813
278,8	0,819
279,3	0,823
279,8	0,829
280,2	0,831
280,7	0,833
281,1	0,835
281,6	0,837
282,1	0,837
282,5	0,837
283	0,836
283,4	0,837
283,9	0,836
284,4	0,833
284,8	0,83
285,3	0,826
285,8	0,822
286,2	0,816
286,7	0,808
287,1	0,801
287,6	0,794
288,1	0,785
288,5	0,777
289	0,766
289,5	0,757
289,9	0,747
290,4	0,735
290,8	0,723
291,3	0,712
291,8	0,698
292,2	0,686
292,7	0,672
293,1	0,657
293,6	0,644
294,1	0,629
294,5	0,614
295	0,599
295,5	0,584
295,9	0,569
296,4	0,553
296,8	0,537
297,3	0,521
297,8	0,504
298,2	0,489
298,7	0,472
299,1	0,456
299,6	0,44
300,1	0,425
300,5	0,41
301	0,395
301,5	0,38
301,9	0,367
302,4	0,353
302,8	0,34
303,3	0,327
303,8	0,314
304,2	0,302
304,7	0,29
305,1	0,278
305,6	0,267
306,1	0,256
306,5	0,246
307	0,236
307,4	0,226
307,9	0,217
308,4	0,209
308,8	0,2
309,3	0,192
309,8	0,185
310,2	0,178
310,7	0,171
311,1	0,164
311,6	0,158
312,1	0,152
312,5	0,147
313	0,141
313,4	0,136
313,9	0,131
314,4	0,127
314,8	0,123
315,3	0,119
315,7	0,115
316,2	0,112
316,7	0,108
317,1	0,105
317,6	0,102
318	0,1
318,5	0,098
319	0,095
319,4	0,093
319,9	0,091
320,3	0,09
320,8	0,088
321,3	0,086
321,7	0,084
322,2	0,083
322,6	0,081
323,1	0,08
323,6	0,079
324	0,078
324,5	0,077
324,9	0,075
325,4	0,074
325,9	0,074
326,3	0,073
326,8	0,072
327,2	0,071
327,7	0,071
328,2	0,07
328,6	0,069
329,1	0,068
329,5	0,067
330	0,067
330,5	0,066
330,9	0,066
331,4	0,066
331,8	0,065
332,3	0,065
332,8	0,065
333,2	0,064
333,7	0,063
334,1	0,062
334,6	0,062
335,1	0,061
335,5	0,06
336	0,06
336,4	0,06
336,9	0,059
337,4	0,059
337,8	0,059
338,3	0,059
338,7	0,059
339,2	0,059
339,7	0,059
340,1	0,058
340,6	0,058
341	0,057
341,5	0,057
342	0,057
342,4	0,057
342,9	0,057
343,3	0,057
343,8	0,057
344,2	0,056
344,7	0,056
345,2	0,055
345,6	0,055
346,1	0,055
346,5	0,054
347	0,054
347,5	0,055
347,9	0,054
348,4	0,054
348,8	0,054
349,3	0,054
349,8	0,053
350,2	0,053
350,7	0,053
351,1	0,053
351,6	0,053
352	0,053
352,5	0,052
353	0,052
353,4	0,052
353,9	0,051
354,3	0,051
354,8	0,05
355,3	0,05
355,7	0,051
356,2	0,05
356,6	0,05
357,1	0,05
357,5	0,05
358	0,05
358,5	0,05
358,9	0,049
359,4	0,049
359,8	0,048
360,3	0,048
360,8	0,048
361,2	0,048
361,7	0,047
362,1	0,047
362,6	0,046
363	0,047
363,5	0,046
364	0,046
364,4	0,046
364,9	0,046
365,3	0,046
365,8	0,046
366,3	0,045
366,7	0,045
367,2	0,045
367,6	0,045
368,1	0,044
368,5	0,044
369	0,044
369,5	0,044
369,9	0,044
370,4	0,043
370,8	0,043
371,3	0,043
371,7	0,043
372,2	0,042
372,7	0,042
373,1	0,042
373,6	0,042
374	0,042
374,5	0,041
374,9	0,041
375,4	0,041
375,9	0,04
376,3	0,04
376,8	0,04
377,2	0,039
377,7	0,039
378,2	0,039
378,6	0,039
379,1	0,039
379,5	0,039
380	0,039
380,4	0,039
380,9	0,038
381,4	0,038
381,8	0,038
382,3	0,038
382,7	0,038
383,2	0,037
383,6	0,037
384,1	0,037
384,6	0,038
385	0,038
385,5	0,038
385,9	0,037
386,4	0,037
386,8	0,037
387,3	0,036
387,7	0,036
388,2	0,035
388,7	0,035
389,1	0,035
389,6	0,035
390	0,035
390,5	0,035
390,9	0,034
391,4	0,034
391,9	0,034
392,3	0,034
392,8	0,034
393,2	0,034
393,7	0,033
394,1	0,033
394,6	0,034
395,1	0,034
395,5	0,033
396	0,033
396,4	0,033
396,9	0,033
397,3	0,033
397,8	0,032
398,2	0,032
398,7	0,032
399,2	0,032
399,6	0,032
400,1	0,032
400,5	0,032
401	0,033
401,4	0,033
401,9	0,033
402,4	0,033
402,8	0,032
403,3	0,032
403,7	0,032
404,2	0,031
404,6	0,031
405,1	0,031
405,5	0,031
406	0,031
406,5	0,03
406,9	0,031
407,4	0,031
407,8	0,031
408,3	0,031
408,7	0,03
409,2	0,031
409,6	0,03
410,1	0,03
410,6	0,03
411	0,03
411,5	0,03
411,9	0,03
412,4	0,03
412,8	0,03
413,3	0,029
413,7	0,029
414,2	0,029
414,7	0,029
415,1	0,029
415,6	0,029
416	0,029
416,5	0,029
416,9	0,028
417,4	0,028
417,8	0,028
418,3	0,028
418,8	0,028
419,2	0,028
419,7	0,028
420,1	0,028
420,6	0,028
421	0,027
421,5	0,027
421,9	0,027
422,4	0,027
422,8	0,027
423,3	0,027
423,8	0,027
424,2	0,028
424,7	0,028
425,1	0,028
425,6	0,027
426	0,028
426,5	0,027
426,9	0,027
427,4	0,027
427,9	0,026
428,3	0,026
428,8	0,026
429,2	0,025
429,7	0,025
430,1	0,025
430,6	0,025
431	0,025
431,5	0,025
431,9	0,025
432,4	0,025
432,8	0,025
433,3	0,026
433,8	0,026
434,2	0,026
434,7	0,026
435,1	0,026
435,6	0,025
436	0,026
436,5	0,026
436,9	0,026
437,4	0,026
437,8	0,026
438,3	0,026
438,8	0,026
439,2	0,026
439,7	0,026
440,1	0,026
440,6	0,025
441	0,025
441,5	0,025
441,9	0,025
442,4	0,024
442,8	0,024
443,3	0,023
443,7	0,023
444,2	0,023
444,7	0,023
445,1	0,023
445,6	0,023
446	0,023
446,5	0,023
446,9	0,023
447,4	0,023
447,8	0,024
448,3	0,023
448,7	0,023
449,2	0,023
449,6	0,023
450,1	0,023
450,6	0,024
451	0,023
451,5	0,023
451,9	0,023
452,4	0,023
452,8	0,023
453,3	0,023
453,7	0,023
454,2	0,023
454,6	0,023
455,1	0,022
455,5	0,022
456	0,022
456,4	0,022
456,9	0,022
457,3	0,022
457,8	0,022
458,3	0,022
458,7	0,022
459,2	0,022
459,6	0,022
460,1	0,022
460,5	0,022
461	0,022
461,4	0,022
461,9	0,022
462,3	0,022
462,8	0,022
463,2	0,022
463,7	0,021
464,1	0,021
464,6	0,021
465	0,021
465,5	0,021
466	0,021
466,4	0,021
466,9	0,021
467,3	0,02
467,8	0,02
468,2	0,02
468,7	0,02
469,1	0,02
469,6	0,02
470	0,02
470,5	0,02
470,9	0,021
471,4	0,021
471,8	0,02
472,3	0,02
472,7	0,02
473,2	0,021
473,6	0,02
474,1	0,02
474,5	0,02
475	0,02
475,4	0,019
475,9	0,02
476,4	0,02
476,8	0,02
477,3	0,02
477,7	0,021
478,2	0,021
478,6	0,021
479,1	0,021
479,5	0,02
480	0,02
480,4	0,02
480,9	0,02
481,3	0,019
481,8	0,019
482,2	0,019
482,7	0,02
483,1	0,021
483,6	0,022
484	0,023
484,5	0,022
484,9	0,02
485,4	0,019
485,8	0,018
486,3	0,018
486,7	0,017
487,2	0,015
487,6	0,015
488,1	0,018
488,5	0,019
489	0,019
489,4	0,019
489,9	0,018
490,4	0,018
490,8	0,018
491,3	0,018
491,7	0,018
492,2	0,018
492,6	0,018
493,1	0,018
493,5	0,018
494	0,018
494,4	0,018
494,9	0,017
495,3	0,018
495,8	0,017
496,2	0,018
496,7	0,018
497,1	0,017
497,6	0,017
498	0,017
498,5	0,016
498,9	0,017
499,4	0,017
499,8	0,016
500,3	0,017
500,7	0,016
501,2	0,016
501,6	0,016
502,1	0,016
502,5	0,016
503	0,016
503,4	0,016
503,9	0,016
504,3	0,016
504,8	0,016
505,2	0,015
505,7	0,016
506,1	0,016
506,6	0,016
507	0,016
507,5	0,016
507,9	0,016
508,4	0,017
508,8	0,016
509,3	0,016
509,7	0,016
510,2	0,016
510,6	0,017
511,1	0,017
511,5	0,017
512	0,017
512,4	0,017
512,9	0,017
513,3	0,016
513,8	0,016
514,2	0,016
514,7	0,015
515,1	0,015
515,6	0,015
516	0,015
516,5	0,015
516,9	0,015
517,4	0,015
517,8	0,015
518,3	0,015
518,7	0,015
519,2	0,015
519,6	0,016
520,1	0,016
520,5	0,015
521	0,015
521,4	0,015
521,9	0,015
522,3	0,015
522,8	0,015
523,2	0,014
523,7	0,015
524,1	0,015
524,6	0,014
525	0,014
525,5	0,014
525,9	0,013
526,4	0,014
526,8	0,014
527,3	0,014
527,7	0,014
528,2	0,014
528,6	0,015
529,1	0,015
529,5	0,015
530	0,014
530,4	0,014
530,9	0,014
531,3	0,013
531,8	0,013
532,2	0,014
532,6	0,013
533,1	0,013
533,5	0,013
534	0,013
534,4	0,013
534,9	0,013
535,3	0,013
535,8	0,012
536,2	0,013
536,7	0,013
537,1	0,013
537,6	0,012
538	0,012
538,5	0,012
538,9	0,012
539,4	0,012
539,8	0,012
540,3	0,012
540,7	0,012
541,2	0,011
541,6	0,011
542,1	0,011
542,5	0,011
543	0,011
543,4	0,011
543,9	0,011
544,3	0,011
544,8	0,011
545,2	0,012
545,7	0,013
546,1	0,013
546,5	0,012
547	0,012
547,4	0,012
547,9	0,011
548,3	0,011
548,8	0,011
549,2	0,011
549,7	0,011
550,1	0,011
550,6	0,011
551	0,012
551,5	0,011
551,9	0,012
552,4	0,011
552,8	0,011
553,3	0,011
553,7	0,011
554,2	0,011
554,6	0,011
555,1	0,011
555,5	0,011
555,9	0,011
556,4	0,011
556,8	0,011
557,3	0,011
557,7	0,011
558,2	0,011
558,6	0,011
559,1	0,011
559,5	0,011
560	0,011
560,4	0,011
560,9	0,01
561,3	0,01
561,8	0,01
562,2	0,01
562,7	0,009
563,1	0,01
563,6	0,009
564	0,009
564,4	0,01
564,9	0,01
565,3	0,01
565,8	0,011
566,2	0,011
566,7	0,011
567,1	0,011
567,6	0,011
568	0,011
568,5	0,011
568,9	0,011
569,4	0,01
569,8	0,01
570,3	0,01
570,7	0,009
571,1	0,009
571,6	0,01
572	0,01
572,5	0,009
572,9	0,009
573,4	0,009
573,8	0,009
574,3	0,009
574,7	0,009
575,2	0,009
575,6	0,009
576,1	0,009
576,5	0,009
576,9	0,009
577,4	0,009
577,8	0,008
578,3	0,008
578,7	0,008
579,2	0,008
579,6	0,009
580,1	0,009
580,5	0,009
581	0,008
581,4	0,008
581,9	0,007
582,3	0,007
582,7	0,007
583,2	0,007
583,6	0,008
584,1	0,008
584,5	0,008
585	0,008
585,4	0,009
585,9	0,008
586,3	0,008
586,8	0,008
587,2	0,008
587,6	0,008
588,1	0,008
588,5	0,008
589	0,008
589,4	0,007
589,9	0,008
590,3	0,008
590,8	0,009
591,2	0,009
591,7	0,009
592,1	0,009
592,5	0,008
593	0,008
593,4	0,008
593,9	0,007
594,3	0,006
594,8	0,006
595,2	0,007
595,7	0,007
596,1	0,007
596,6	0,007
597	0,007
597,4	0,008
597,9	0,008
598,3	0,007
598,8	0,007
599,2	0,007
599,7	0,007
600,1	0,007
600,6	0,007
601	0,007
601,4	0,007
601,9	0,006
602,3	0,006
602,8	0,006
603,2	0,006
603,7	0,006
604,1	0,006
604,6	0,005
605	0,006
605,4	0,006
605,9	0,007
606,3	0,007
606,8	0,007
607,2	0,007
607,7	0,008
608,1	0,008
608,6	0,008
609	0,008
609,4	0,008
609,9	0,008
610,3	0,007
610,8	0,007
611,2	0,007
611,7	0,007
612,1	0,006
612,6	0,006
613	0,006
613,4	0,006
613,9	0,006
614,3	0,006
614,8	0,006
615,2	0,006
615,7	0,006
616,1	0,007
616,6	0,006
617	0,007
617,4	0,007
617,9	0,007
618,3	0,006
618,8	0,006
619,2	0,006
619,7	0,006
620,1	0,006
620,5	0,006
621	0,006
621,4	0,006
621,9	0,006
622,3	0,006
622,8	0,006
623,2	0,005
623,6	0,005
624,1	0,005
624,5	0,005
625	0,005
625,4	0,005
625,9	0,005
626,3	0,005
626,8	0,005
627,2	0,005
627,6	0,005
628,1	0,005
628,5	0,006
629	0,006
629,4	0,006
629,9	0,006
630,3	0,006
630,7	0,005
631,2	0,005
631,6	0,005
632,1	0,005
632,5	0,005
633	0,005
633,4	0,005
633,8	0,005
634,3	0,006
634,7	0,006
635,2	0,006
635,6	0,006
636,1	0,006
636,5	0,006
636,9	0,005
637,4	0,005
637,8	0,004
638,3	0,004
638,7	0,005
639,2	0,005
639,6	0,005
640	0,005
640,5	0,006
640,9	0,006
641,4	0,006
641,8	0,005
642,2	0,005
642,7	0,005
643,1	0,005
643,6	0,005
644	0,004
644,5	0,004
644,9	0,004
645,3	0,004
645,8	0,005
646,2	0,005
646,7	0,005
647,1	0,005
647,6	0,005
648	0,005
648,4	0,005
648,9	0,005
649,3	0,005
649,8	0,005
650,2	0,005
650,6	0,005
651,1	0,006
651,5	0,006
652	0,006
652,4	0,007
652,9	0,007
653,3	0,012
653,7	0,02
654,2	0,014
654,6	0,011
655,1	0,009
655,5	0,005
655,9	0,005
656,4	0,004
656,8	-0,002
657,3	-0,002
657,7	-0,002
658,2	-0,002
658,6	0,004
659	0,004
659,5	0,004
659,9	0,004
660,4	0,005
660,8	0,005
661,2	0,005
661,7	0,006
662,1	0,006
662,6	0,006
663	0,005
663,4	0,005
663,9	0,005
664,3	0,004
664,8	0,004
665,2	0,004
665,6	0,004
666,1	0,004
666,5	0,004
667	0,004
667,4	0,004
667,9	0,005
668,3	0,004
668,7	0,004
669,2	0,005
669,6	0,005
670,1	0,005
670,5	0,005
670,9	0,005
671,4	0,005
671,8	0,005
672,3	0,005
672,7	0,005
673,1	0,004
673,6	0,004
674	0,004
674,5	0,004
674,9	0,004
675,3	0,004
675,8	0,004
676,2	0,004
676,7	0,004
677,1	0,004
677,5	0,004
678	0,004
678,4	0,004
678,9	0,004
679,3	0,004
679,7	0,004
680,2	0,004
680,6	0,004
681,1	0,004
681,5	0,004
681,9	0,004
682,4	0,004
682,8	0,004
683,3	0,004
683,7	0,005
684,1	0,004
684,6	0,004
685	0,004
685,5	0,004
685,9	0,004
686,3	0,004
686,8	0,004
687,2	0,004
687,7	0,004
688,1	0,005
688,5	0,005
689	0,005
689,4	0,005
689,9	0,005
690,3	0,005
690,7	0,005
691,2	0,005
691,6	0,005
692	0,005
692,5	0,004
692,9	0,004
693,4	0,004
693,8	0,003
694,2	0,003
694,7	0,003
695,1	0,004
695,6	0,005
696	0,005
696,4	0,004
696,9	0,004
697,3	0,004
697,8	0,004
698,2	0,004
698,6	0,003
699,1	0,003
699,5	0,004
699,9	0,003
700,4	0,003
700,8	0,003
701,3	0,003
701,7	0,003
702,1	0,003
702,6	0,003
703	0,003
703,5	0,003
703,9	0,003
704,3	0,003
704,8	0,003
705,2	0,004
705,6	0,004
706,1	0,004
706,5	0,004
707	0,004
707,4	0,004
707,8	0,004
708,3	0,004
708,7	0,004
709,2	0,004
709,6	0,004
710	0,004
710,5	0,004
710,9	0,004
711,3	0,004
711,8	0,003
712,2	0,003
712,7	0,004
713,1	0,004
713,5	0,003
714	0,003
714,4	0,003
714,8	0,003
715,3	0,003
715,7	0,003
716,2	0,003
716,6	0,003
717	0,003
717,5	0,004
717,9	0,004
718,3	0,004
718,8	0,004
719,2	0,004
719,7	0,004
720,1	0,004
720,5	0,004
721	0,004
721,4	0,004
721,8	0,004
722,3	0,004
722,7	0,004
723,2	0,004
723,6	0,005
724	0,005
724,5	0,005
724,9	0,005
725,3	0,005
725,8	0,004
726,2	0,005
726,7	0,004
727,1	0,004
727,5	0,004
728	0,004
728,4	0,004
728,8	0,004
729,3	0,004
729,7	0,003
730,1	0,003
730,6	0,003
731	0,003
731,5	0,003
731,9	0,003
732,3	0,003
732,8	0,003
733,2	0,003
733,6	0,003
734,1	0,003
734,5	0,003
734,9	0,003
735,4	0,003
735,8	0,002
736,3	0,003
736,7	0,003
737,1	0,003
737,6	0,003
738	0,003
738,4	0,003
738,9	0,003
739,3	0,002
739,7	0,002
740,2	0,002
740,6	0,001
741,1	0,001
741,5	0,001
741,9	0,001
742,4	0,001
742,8	0,002
743,2	0,002
743,7	0,003
744,1	0,003
744,5	0,003
745	0,003
745,4	0,003
745,8	0,003
746,3	0,003
746,7	0,003
747,2	0,003
747,6	0,003
748	0,003
748,5	0,003
748,9	0,004
749,3	0,003
749,8	0,003
750,2	0,003
750,6	0,003
751,1	0,003
751,5	0,003
751,9	0,003
752,4	0,003
752,8	0,002
753,3	0,002
753,7	0,002
754,1	0,002
754,6	0,003
755	0,003
755,4	0,003
755,9	0,004
756,3	0,004
756,7	0,004
757,2	0,004
757,6	0,004
758	0,004
758,5	0,004
758,9	0,003
759,3	0,003
759,8	0,003
760,2	0,003
760,6	0,003
761,1	0,003
761,5	0,003
761,9	0,002
762,4	0,003
762,8	0,003
763,3	0,004
763,7	0,004
764,1	0,004
764,6	0,004
765	0,004
765,4	0,003
765,9	0,003
766,3	0,003
766,7	0,004
767,2	0,004
767,6	0,005
768	0,005
768,5	0,005
768,9	0,005
769,3	0,005
769,8	0,004
770,2	0,004
770,6	0,004
771,1	0,004
771,5	0,004
771,9	0,003
772,4	0,003
772,8	0,003
773,2	0,003
773,7	0,003
774,1	0,003
774,5	0,003
775	0,003
775,4	0,003
775,8	0,003
776,3	0,003
776,7	0,003
777,1	0,002
777,6	0,002
778	0,003
778,4	0,003
778,9	0,003
779,3	0,003
779,7	0,003
780,2	0,003
780,6	0,003
781	0,003
781,5	0,003
781,9	0,003
782,3	0,003
782,8	0,003
783,2	0,003
783,6	0,003
784,1	0,003
784,5	0,004
784,9	0,003
785,4	0,003
785,8	0,004
786,2	0,004
786,7	0,004
787,1	0,004
787,5	0,004
788	0,004
788,4	0,003
788,8	0,003
789,3	0,003
789,7	0,003
790,1	0,003
790,6	0,003
791	0,003
791,4	0,003
791,9	0,004
792,3	0,004
792,7	0,004
793,2	0,003
793,6	0,003
794	0,003
794,5	0,003
794,9	0,003
795,3	0,003
795,8	0,003
796,2	0,003
796,6	0,003
797,1	0,003
797,5	0,003
797,9	0,003
798,4	0,003
798,8	0,002
799,2	0,002
799,7	0,002
800,1	0,002
800,5	0,002
801	0,002
801,4	0,002
801,8	0,002
802,2	0,002
802,7	0,002
803,1	0,002
803,5	0,002
804	0,002
804,4	0,002
804,8	0,003
805,3	0,003
805,7	0,003
806,1	0,004
806,6	0,004
807	0,004
807,4	0,003
807,9	0,003
808,3	0,004
808,7	0,004
809,2	0,004
809,6	0,004
810	0,004
810,4	0,004
810,9	0,004
811,3	0,004
811,7	0,004
812,2	0,004
812,6	0,004
813	0,003
813,5	0,003
813,9	0,003
814,3	0,003
814,8	0,003
815,2	0,003
815,6	0,003
816,1	0,004
816,5	0,004
816,9	0,005
817,3	0,004
817,8	0,005
818,2	0,004
818,6	0,004
819,1	0,004
819,5	0,004
819,9	0,004
820,4	0,004
820,8	0,004
821,2	0,003
821,7	0,004
822,1	0,004
822,5	0,003
822,9	0,003
823,4	0,003
823,8	0,003
824,2	0,003
824,7	0,003
825,1	0,002
825,5	0,002
826	0,002
826,4	0,003
826,8	0,003
827,3	0,003
827,7	0,003
828,1	0,004
828,5	0,004
829	0,004
829,4	0,004
829,8	0,003
830,3	0,003
830,7	0,003
831,1	0,003
831,6	0,003
832	0,002
832,4	0,002
832,8	0,002
833,3	0,002
833,7	0,002
834,1	0,002
834,6	0,002
835	0,002
835,4	0,003
835,8	0,003
836,3	0,003
836,7	0,003
837,1	0,003
837,6	0,002
838	0,002
838,4	0,002
838,9	0,002
839,3	0,002
839,7	0,002
840,1	0,002
840,6	0,002
841	0,003
841,4	0,003
841,9	0,003
842,3	0,003
842,7	0,004
843,1	0,004
843,6	0,004
844	0,004
844,4	0,004
844,9	0,004
845,3	0,004
845,7	0,004
846,2	0,004
846,6	0,004
847	0,004
847,4	0,004
847,9	0,003
848,3	0,004
848,7	0,004
849,2	0,004
849,6	0,004
850	0,004
850,4	0,004
850,9	0,004
851,3	0,004
851,7	0,004
852,2	0,003
852,6	0,002
853	0,002
853,4	0,002
853,9	0,002
854,3	0,002
854,7	0,002
855,2	0,002
855,6	0,002
856	0,003
856,4	0,002
856,9	0,002
857,3	0,002
857,7	0,002
858,2	0,002
858,6	0,002
859	0,002
859,4	0,003
859,9	0,003
860,3	0,003
860,7	0,004
861,1	0,004
861,6	0,005
862	0,005
862,4	0,005
862,9	0,005
863,3	0,005
863,7	0,004
864,1	0,004
864,6	0,004
865	0,004
865,4	0,004
865,9	0,004
866,3	0,004
866,7	0,004
867,1	0,004
867,6	0,004
868	0,004
868,4	0,004
868,8	0,004
869,3	0,003
869,7	0,003
870,1	0,003
870,6	0,003
871	0,003
871,4	0,002
871,8	0,002
872,3	0,002
872,7	0,002
873,1	0,003
873,5	0,003
874	0,003
874,4	0,003
874,8	0,003
875,3	0,003
875,7	0,003
876,1	0,003
876,5	0,002
877	0,002
877,4	0,002
877,8	0,002
878,2	0,002
878,7	0,002
879,1	0,002
879,5	0,002
879,9	0,003
880,4	0,003
880,8	0,003
881,2	0,003
881,7	0,003
882,1	0,004
882,5	0,004
882,9	0,004
883,4	0,004
883,8	0,004
884,2	0,004
884,6	0,004
885,1	0,003
885,5	0,003
885,9	0,003
886,3	0,003
886,8	0,003
887,2	0,003
887,6	0,003
888	0,003
888,5	0,003
888,9	0,002
889,3	0,002
889,8	0,002
890,2	0,002
890,6	0,002
891	0,002
891,5	0,003
891,9	0,003
892,3	0,003
892,7	0,003
893,2	0,004
893,6	0,003
894	0,003
894,4	0,004
894,9	0,003
895,3	0,004
895,7	0,004
896,1	0,004
896,6	0,003
897	0,004
897,4	0,004
897,8	0,004
898,3	0,003
898,7	0,004
899,1	0,004
899,5	0,004
900	0,004
900,4	0,004
900,8	0,004
901,2	0,004
901,7	0,004
902,1	0,004
902,5	0,003
902,9	0,003
903,4	0,002
903,8	0,002
904,2	0,002
904,6	0,002
905,1	0,002
905,5	0,002
905,9	0,002
906,3	0,002
906,8	0,002
907,2	0,002
907,6	0,002
908	0,002
908,5	0,002
908,9	0,002
909,3	0,001
909,7	0,002
910,2	0,002
910,6	0,002
911	0,002
911,4	0,001
911,9	0,002
912,3	0,002
912,7	0,002
913,1	0,002
913,6	0,002
914	0,002
914,4	0,003
914,8	0,003
915,3	0,003
915,7	0,003
916,1	0,003
916,5	0,003
916,9	0,003
917,4	0,003
917,8	0,002
918,2	0,002
918,6	0,002
919,1	0,002
919,5	0,002
919,9	0,003
920,3	0,003
920,8	0,003
921,2	0,003
921,6	0,003
922	0,003
922,5	0,003
922,9	0,003
923,3	0,003
923,7	0,003
924,2	0,003
924,6	0,003
925	0,003
925,4	0,003
925,8	0,003
926,3	0,003
926,7	0,003
927,1	0,003
927,5	0,003
928	0,002
928,4	0,001
928,8	0,001
929,2	0,001
929,7	0,001
930,1	0,001
930,5	0,002
930,9	0,002
931,3	0,002
931,8	0,002
932,2	0,002
932,6	0,002
933	0,002
933,5	0,001
933,9	0,001
934,3	0,001
934,7	0,001
935,2	0,001
935,6	0,001
936	0,002
936,4	0,002
936,8	0,002
937,3	0,002
937,7	0,003
938,1	0,003
938,5	0,002
939	0,002
939,4	0,002
939,8	0,002
940,2	0,002
940,6	0,001
941,1	0,001
941,5	0,001
941,9	0,001
942,3	0,001
942,8	0
943,2	-0
943,6	0
944	0,001
944,4	0,001
944,9	0,002
945,3	0,002
945,7	0,002
946,1	0,003
946,6	0,004
947	0,003
947,4	0,004
947,8	0,004
948,2	0,005
948,7	0,005
949,1	0,005
949,5	0,004
949,9	0,004
950,3	0,004
950,8	0,003
951,2	0,003
951,6	0,003
952	0,003
952,5	0,003
952,9	0,003
953,3	0,003
953,7	0,003
954,1	0,002
954,6	0,002
955	0,002
955,4	0,002
955,8	0,002
956,2	0,002
956,7	0,002
957,1	0,002
957,5	0,002
957,9	0,003
958,3	0,002
958,8	0,002
959,2	0,002
959,6	0,002
960	0,002
960,5	0,003
960,9	0,002
961,3	0,003
961,7	0,003
962,1	0,003
962,6	0,003
963	0,003
963,4	0,003
963,8	0,003
964,2	0,003
964,7	0,002
965,1	0,002
965,5	0,002
965,9	0,002
966,3	0,002
966,8	0,002
967,2	0,002
967,6	0,002
968	0,002
968,4	0,001
968,9	0,001
969,3	0,001
969,7	0,001
970,1	0,001
970,5	0,001
971	0,002
971,4	0,002
971,8	0,002
972,2	0,002
972,6	0,002
973,1	0,003
973,5	0,003
973,9	0,002
974,3	0,002
974,7	0,002
975,2	0,002
975,6	0,002
976	0,002
976,4	0,003
976,8	0,003
977,3	0,004
977,7	0,004
978,1	0,004
978,5	0,004
978,9	0,004
979,4	0,004
979,8	0,004
980,2	0,003
980,6	0,003
981	0,003
981,5	0,003
981,9	0,003
982,3	0,003
982,7	0,002
983,1	0,002
983,6	0,002
984	0,002
984,4	0,002
984,8	0,002
985,2	0,002
985,6	0,003
986,1	0,003
986,5	0,003
986,9	0,003
987,3	0,004
987,7	0,003
988,2	0,003
988,6	0,004
989	0,004
989,4	0,004
989,8	0,003
990,3	0,003
990,7	0,003
991,1	0,004
991,5	0,004
991,9	0,005
992,3	0,005
992,8	0,005
993,2	0,006
993,6	0,005
994	0,005
994,4	0,004
994,9	0,004
995,3	0,004
995,7	0,004
996,1	0,004
996,5	0,004
996,9	0,004
997,4	0,004
997,8	0,004
998,2	0,004
998,6	0,004
999	0,004
999,5	0,004
999,9	0,004
1000,3	0,004
1000,7	0,004
1001,1	0,005
1001,5	0,005
1002	0,005
1002,4	0,005
1002,8	0,005
1003,2	0,005
1003,6	0,005
1004	0,004
1004,5	0,005
1004,9	0,004
1005,3	0,004
1005,7	0,004
1006,1	0,004
1006,6	0,005
1007	0,005
1007,4	0,004
1007,8	0,004
1008,2	0,005
1008,6	0,005
1009,1	0,005
1009,5	0,004
1009,9	0,004
1010,3	0,004
1010,7	0,004
1011,1	0,004
1011,6	0,004
1012	0,004
1012,4	0,004
1012,8	0,005
1013,2	0,005
1013,6	0,005
1014,1	0,006
1014,5	0,005
1014,9	0,005
1015,3	0,005
1015,7	0,004
1016,1	0,004
1016,6	0,004
1017	0,005
1017,4	0,005
1017,8	0,005
1018,2	0,006
1018,6	0,006
1019,1	0,007
1019,5	0,007
1019,9	0,006
1020,3	0,006
1020,7	0,006
1021,1	0,006
1021,6	0,006
1022	0,006
1022,4	0,005
1022,8	0,006
1023,2	0,006
1023,6	0,006
1024,1	0,005
1024,5	0,005
1024,9	0,005
1025,3	0,006
1025,7	0,005
1026,1	0,005
1026,6	0,006
1027	0,006
1027,4	0,006
1027,8	0,006
1028,2	0,007
1028,6	0,007
1029	0,007
1029,5	0,007
1029,9	0,007
1030,3	0,007
1030,7	0,006
1031,1	0,006
1031,5	0,007
1032	0,006
1032,4	0,007
1032,8	0,007
1033,2	0,007
1033,6	0,008
1034	0,008
1034,4	0,008
1034,9	0,007
1035,3	0,007
1035,7	0,007
1036,1	0,007
1036,5	0,007
1036,9	0,008
1037,4	0,008
1037,8	0,008
1038,2	0,007
1038,6	0,008
1039	0,008
1039,4	0,008
1039,8	0,007
1040,3	0,007
1040,7	0,006
1041,1	0,007
1041,5	0,007
1041,9	0,008
1042,3	0,008
1042,7	0,008
1043,2	0,008
1043,6	0,008
1044	0,008
1044,4	0,008
1044,8	0,007
1045,2	0,007
1045,6	0,006
1046,1	0,006
1046,5	0,007
1046,9	0,006
1047,3	0,006
1047,7	0,006
1048,1	0,007
1048,5	0,008
1049	0,008
1049,4	0,007
1049,8	0,008
1050,2	0,008
1050,6	0,007
1051	0,007
1051,4	0,006
1051,9	0,006
1052,3	0,006
1052,7	0,006
1053,1	0,006
1053,5	0,007
1053,9	0,006
1054,3	0,005
1054,8	0,006
1055,2	0,006
1055,6	0,006
1056	0,007
1056,4	0,006
1056,8	0,006
1057,2	0,007
1057,6	0,007
1058,1	0,007
1058,5	0,007
1058,9	0,007
1059,3	0,007
1059,7	0,008
1060,1	0,008
1060,5	0,008
1061	0,007
1061,4	0,008
1061,8	0,008
1062,2	0,008
1062,6	0,009
1063	0,009
1063,4	0,009
1063,8	0,01
1064,3	0,01
1064,7	0,009
1065,1	0,009
1065,5	0,009
1065,9	0,009
1066,3	0,009
1066,7	0,009
1067,1	0,009
1067,6	0,008
1068	0,008
1068,4	0,008
1068,8	0,008
1069,2	0,008
1069,6	0,008
1070	0,009
1070,4	0,01
1070,9	0,01
1071,3	0,009
1071,7	0,009
1072,1	0,008
1072,5	0,009
1072,9	0,008
1073,3	0,009
1073,7	0,01
1074,2	0,011
1074,6	0,012
1075	0,013
1075,4	0,013
1075,8	0,014
1076,2	0,013
1076,6	0,012
1077	0,011
1077,5	0,01
1077,9	0,008
1078,3	0,008
1078,7	0,006
1079,1	0,006
1079,5	0,007
1079,9	0,007
1080,3	0,008
1080,7	0,009
1081,2	0,009
1081,6	0,01
1082	0,012
1082,4	0,013
1082,8	0,013
1083,2	0,012
1083,6	0,012
1084	0,013
1084,5	0,013
1084,9	0,011
1085,3	0,011
1085,7	0,011
1086,1	0,012
1086,5	0,015
1086,9	0,014
1087,3	0,016
1087,7	0,018
1088,2	0,018
1088,6	0,018
1089	0,018
1089,4	0,015
1089,8	0,015
1090,2	0,013
1090,6	0,013
1091	0,015
1091,4	0,017
1091,9	0,019
1092,3	0,018
1092,7	0,017
1093,1	0,02
1093,5	0,022
1093,9	0,019
1094,3	0,016
1094,7	0,016
1095,1	0,023
1095,5	0,027
1096	0,033
1096,4	0,031
1096,8	0,033
1097,2	0,034
1097,6	0,043
1098	0,039
1098,4	0,038
1098,8	0,037
1099,2	0,042
1099,6	0,052
1100,1	0,051
1100,5	0,043
1100,9	0,045
1101,3	0,046
1101,7	0,054
1102,1	0,056
1102,5	0,062
1102,9	0,075
1103,3	0,073
1103,7	0,068
1104,2	0,068
1104,6	0,059
1105	0,067
1105,4	0,066
1105,8	0,06
1106,2	0,071
1106,6	0,087
1107	0,106
1107,4	0,129
1107,8	0,117
1108,3	-0,155
