Data from Absorbance_097.txt Node
Date: Fri Nov 13 18:35:14 MSK 2020
User: vat
Spectrometer: MAYP114033
Trigger mode: 0
Integration Time (sec): 8,000000E-3
Scans to average: 10
Electric dark correction enabled: true
Nonlinearity correction enabled: false
Boxcar width: 3
XAxis mode: Wavelengths
Number of Pixels in Spectrum: 2068
>>>>>Begin Spectral Data<<<<<
199,4	0,323
199,9	0,142
200,4	0,114
200,8	0,063
201,3	0,035
201,8	0,023
202,2	0,037
202,7	0,045
203,2	0,045
203,6	0,039
204,1	0,045
204,6	0,046
205	0,03
205,5	0,033
206	0,035
206,4	0,023
206,9	0,03
207,4	0,028
207,8	0,025
208,3	0,033
208,8	0,026
209,2	0,031
209,7	0,026
210,2	0,009
210,6	0,009
211,1	0,012
211,5	0,025
212	0,019
212,5	0,014
212,9	0,033
213,4	0,04
213,9	0,035
214,3	0,045
214,8	0,035
215,3	0,042
215,7	0,037
216,2	0,028
216,7	0,02
217,1	0,019
217,6	0,005
218,1	0,006
218,5	-0,004
219	-0
219,5	0,013
219,9	0,021
220,4	0,037
220,9	0,061
221,3	0,054
221,8	0,068
222,3	0,062
222,7	0,065
223,2	0,084
223,6	0,074
224,1	0,067
224,6	0,087
225	0,089
225,5	0,089
226	0,093
226,4	0,083
226,9	0,084
227,4	0,087
227,8	0,067
228,3	0,072
228,8	0,106
229,2	0,086
229,7	0,078
230,2	0,078
230,6	0,071
231,1	0,081
231,5	0,078
232	0,057
232,5	0,074
232,9	0,093
233,4	0,109
233,9	0,099
234,3	0,107
234,8	0,111
235,3	0,111
235,7	0,102
236,2	0,096
236,7	0,086
237,1	0,1
237,6	0,1
238,1	0,101
238,5	0,094
239	0,107
239,4	0,114
239,9	0,13
240,4	0,142
240,8	0,152
241,3	0,156
241,8	0,172
242,2	0,174
242,7	0,184
243,2	0,175
243,6	0,173
244,1	0,178
244,6	0,186
245	0,2
245,5	0,207
245,9	0,207
246,4	0,216
246,9	0,219
247,3	0,229
247,8	0,237
248,3	0,244
248,7	0,252
249,2	0,259
249,7	0,265
250,1	0,267
250,6	0,27
251	0,275
251,5	0,276
252	0,276
252,4	0,281
252,9	0,286
253,4	0,291
253,8	0,294
254,3	0,298
254,8	0,304
255,2	0,311
255,7	0,318
256,1	0,325
256,6	0,333
257,1	0,342
257,5	0,35
258	0,36
258,5	0,37
258,9	0,379
259,4	0,389
259,9	0,4
260,3	0,41
260,8	0,423
261,2	0,435
261,7	0,447
262,2	0,46
262,6	0,473
263,1	0,486
263,6	0,499
264	0,511
264,5	0,525
264,9	0,537
265,4	0,551
265,9	0,565
266,3	0,579
266,8	0,592
267,3	0,606
267,7	0,621
268,2	0,634
268,7	0,648
269,1	0,662
269,6	0,675
270	0,69
270,5	0,703
271	0,715
271,4	0,729
271,9	0,74
272,4	0,752
272,8	0,766
273,3	0,777
273,7	0,788
274,2	0,801
274,7	0,813
275,1	0,825
275,6	0,836
276,1	0,846
276,5	0,858
277	0,868
277,4	0,878
277,9	0,886
278,4	0,893
278,8	0,9
279,3	0,905
279,8	0,91
280,2	0,915
280,7	0,918
281,1	0,922
281,6	0,924
282,1	0,926
282,5	0,929
283	0,928
283,4	0,927
283,9	0,925
284,4	0,923
284,8	0,92
285,3	0,915
285,8	0,911
286,2	0,906
286,7	0,9
287,1	0,892
287,6	0,885
288,1	0,877
288,5	0,867
289	0,855
289,5	0,844
289,9	0,832
290,4	0,82
290,8	0,806
291,3	0,792
291,8	0,777
292,2	0,762
292,7	0,745
293,1	0,728
293,6	0,71
294,1	0,692
294,5	0,674
295	0,655
295,5	0,636
295,9	0,618
296,4	0,599
296,8	0,58
297,3	0,561
297,8	0,542
298,2	0,524
298,7	0,505
299,1	0,486
299,6	0,466
300,1	0,449
300,5	0,43
301	0,413
301,5	0,395
301,9	0,378
302,4	0,362
302,8	0,346
303,3	0,33
303,8	0,315
304,2	0,3
304,7	0,285
305,1	0,272
305,6	0,259
306,1	0,246
306,5	0,234
307	0,222
307,4	0,211
307,9	0,201
308,4	0,191
308,8	0,181
309,3	0,172
309,8	0,163
310,2	0,156
310,7	0,147
311,1	0,14
311,6	0,133
312,1	0,127
312,5	0,121
313	0,115
313,4	0,11
313,9	0,105
314,4	0,099
314,8	0,095
315,3	0,09
315,7	0,086
316,2	0,082
316,7	0,079
317,1	0,076
317,6	0,074
318	0,071
318,5	0,068
319	0,066
319,4	0,063
319,9	0,061
320,3	0,059
320,8	0,056
321,3	0,055
321,7	0,053
322,2	0,051
322,6	0,051
323,1	0,05
323,6	0,048
324	0,047
324,5	0,046
324,9	0,045
325,4	0,044
325,9	0,043
326,3	0,042
326,8	0,041
327,2	0,04
327,7	0,04
328,2	0,039
328,6	0,038
329,1	0,038
329,5	0,037
330	0,036
330,5	0,036
330,9	0,036
331,4	0,036
331,8	0,035
332,3	0,035
332,8	0,035
333,2	0,034
333,7	0,034
334,1	0,033
334,6	0,033
335,1	0,033
335,5	0,033
336	0,032
336,4	0,032
336,9	0,032
337,4	0,032
337,8	0,031
338,3	0,031
338,7	0,031
339,2	0,031
339,7	0,031
340,1	0,03
340,6	0,03
341	0,03
341,5	0,029
342	0,028
342,4	0,028
342,9	0,028
343,3	0,027
343,8	0,027
344,2	0,027
344,7	0,027
345,2	0,027
345,6	0,028
346,1	0,028
346,5	0,028
347	0,027
347,5	0,027
347,9	0,027
348,4	0,027
348,8	0,026
349,3	0,026
349,8	0,025
350,2	0,025
350,7	0,025
351,1	0,024
351,6	0,024
352	0,024
352,5	0,024
353	0,024
353,4	0,024
353,9	0,023
354,3	0,023
354,8	0,023
355,3	0,023
355,7	0,022
356,2	0,022
356,6	0,022
357,1	0,022
357,5	0,023
358	0,022
358,5	0,022
358,9	0,022
359,4	0,022
359,8	0,022
360,3	0,022
360,8	0,022
361,2	0,022
361,7	0,022
362,1	0,022
362,6	0,022
363	0,022
363,5	0,021
364	0,021
364,4	0,02
364,9	0,02
365,3	0,02
365,8	0,02
366,3	0,02
366,7	0,019
367,2	0,019
367,6	0,019
368,1	0,019
368,5	0,019
369	0,018
369,5	0,018
369,9	0,018
370,4	0,018
370,8	0,018
371,3	0,018
371,7	0,018
372,2	0,018
372,7	0,018
373,1	0,018
373,6	0,018
374	0,018
374,5	0,017
374,9	0,018
375,4	0,018
375,9	0,018
376,3	0,017
376,8	0,017
377,2	0,017
377,7	0,017
378,2	0,017
378,6	0,016
379,1	0,016
379,5	0,016
380	0,016
380,4	0,016
380,9	0,016
381,4	0,016
381,8	0,015
382,3	0,015
382,7	0,015
383,2	0,015
383,6	0,015
384,1	0,015
384,6	0,015
385	0,015
385,5	0,015
385,9	0,015
386,4	0,014
386,8	0,015
387,3	0,015
387,7	0,015
388,2	0,016
388,7	0,016
389,1	0,016
389,6	0,016
390	0,015
390,5	0,015
390,9	0,014
391,4	0,014
391,9	0,014
392,3	0,014
392,8	0,014
393,2	0,014
393,7	0,014
394,1	0,014
394,6	0,014
395,1	0,014
395,5	0,013
396	0,013
396,4	0,013
396,9	0,013
397,3	0,013
397,8	0,012
398,2	0,012
398,7	0,012
399,2	0,012
399,6	0,012
400,1	0,012
400,5	0,012
401	0,012
401,4	0,012
401,9	0,011
402,4	0,011
402,8	0,012
403,3	0,012
403,7	0,012
404,2	0,012
404,6	0,012
405,1	0,012
405,5	0,011
406	0,011
406,5	0,011
406,9	0,011
407,4	0,011
407,8	0,011
408,3	0,01
408,7	0,01
409,2	0,01
409,6	0,01
410,1	0,01
410,6	0,01
411	0,01
411,5	0,01
411,9	0,01
412,4	0,01
412,8	0,01
413,3	0,01
413,7	0,01
414,2	0,01
414,7	0,011
415,1	0,011
415,6	0,011
416	0,011
416,5	0,011
416,9	0,011
417,4	0,011
417,8	0,011
418,3	0,011
418,8	0,01
419,2	0,01
419,7	0,01
420,1	0,01
420,6	0,01
421	0,011
421,5	0,01
421,9	0,01
422,4	0,01
422,8	0,011
423,3	0,011
423,8	0,01
424,2	0,009
424,7	0,01
425,1	0,01
425,6	0,01
426	0,009
426,5	0,009
426,9	0,009
427,4	0,009
427,9	0,009
428,3	0,009
428,8	0,009
429,2	0,009
429,7	0,009
430,1	0,009
430,6	0,009
431	0,009
431,5	0,009
431,9	0,009
432,4	0,01
432,8	0,009
433,3	0,009
433,8	0,009
434,2	0,009
434,7	0,009
435,1	0,009
435,6	0,008
436	0,009
436,5	0,008
436,9	0,008
437,4	0,008
437,8	0,008
438,3	0,008
438,8	0,009
439,2	0,009
439,7	0,009
440,1	0,009
440,6	0,009
441	0,009
441,5	0,009
441,9	0,009
442,4	0,008
442,8	0,008
443,3	0,008
443,7	0,008
444,2	0,008
444,7	0,008
445,1	0,008
445,6	0,009
446	0,009
446,5	0,009
446,9	0,009
447,4	0,009
447,8	0,008
448,3	0,008
448,7	0,008
449,2	0,007
449,6	0,007
450,1	0,007
450,6	0,007
451	0,007
451,5	0,008
451,9	0,008
452,4	0,008
452,8	0,009
453,3	0,009
453,7	0,008
454,2	0,008
454,6	0,008
455,1	0,008
455,5	0,008
456	0,008
456,4	0,008
456,9	0,008
457,3	0,008
457,8	0,007
458,3	0,007
458,7	0,007
459,2	0,007
459,6	0,007
460,1	0,007
460,5	0,007
461	0,007
461,4	0,007
461,9	0,007
462,3	0,007
462,8	0,007
463,2	0,007
463,7	0,007
464,1	0,007
464,6	0,007
465	0,006
465,5	0,006
466	0,007
466,4	0,006
466,9	0,006
467,3	0,006
467,8	0,006
468,2	0,006
468,7	0,006
469,1	0,006
469,6	0,006
470	0,006
470,5	0,006
470,9	0,006
471,4	0,006
471,8	0,007
472,3	0,007
472,7	0,008
473,2	0,008
473,6	0,007
474,1	0,007
474,5	0,007
475	0,006
475,4	0,006
475,9	0,006
476,4	0,006
476,8	0,006
477,3	0,006
477,7	0,006
478,2	0,006
478,6	0,007
479,1	0,007
479,5	0,007
480	0,007
480,4	0,007
480,9	0,007
481,3	0,007
481,8	0,006
482,2	0,007
482,7	0,006
483,1	0,006
483,6	0,006
484	0,006
484,5	0,006
484,9	0,006
485,4	0,005
485,8	0,005
486,3	0,005
486,7	0,005
487,2	0,005
487,6	0,005
488,1	0,005
488,5	0,005
489	0,005
489,4	0,005
489,9	0,005
490,4	0,005
490,8	0,006
491,3	0,005
491,7	0,006
492,2	0,006
492,6	0,006
493,1	0,006
493,5	0,006
494	0,005
494,4	0,005
494,9	0,004
495,3	0,005
495,8	0,004
496,2	0,004
496,7	0,004
497,1	0,005
497,6	0,005
498	0,005
498,5	0,005
498,9	0,005
499,4	0,005
499,8	0,005
500,3	0,004
500,7	0,005
501,2	0,005
501,6	0,005
502,1	0,005
502,5	0,005
503	0,005
503,4	0,005
503,9	0,005
504,3	0,005
504,8	0,005
505,2	0,005
505,7	0,005
506,1	0,005
506,6	0,005
507	0,005
507,5	0,005
507,9	0,005
508,4	0,005
508,8	0,005
509,3	0,005
509,7	0,005
510,2	0,005
510,6	0,005
511,1	0,004
511,5	0,004
512	0,004
512,4	0,005
512,9	0,004
513,3	0,004
513,8	0,004
514,2	0,004
514,7	0,005
515,1	0,005
515,6	0,004
516	0,003
516,5	0,004
516,9	0,004
517,4	0,004
517,8	0,003
518,3	0,003
518,7	0,004
519,2	0,004
519,6	0,004
520,1	0,004
520,5	0,004
521	0,004
521,4	0,004
521,9	0,004
522,3	0,004
522,8	0,003
523,2	0,003
523,7	0,003
524,1	0,003
524,6	0,003
525	0,003
525,5	0,003
525,9	0,003
526,4	0,003
526,8	0,003
527,3	0,003
527,7	0,002
528,2	0,002
528,6	0,003
529,1	0,002
529,5	0,003
530	0,002
530,4	0,002
530,9	0,003
531,3	0,003
531,8	0,003
532,2	0,003
532,6	0,003
533,1	0,003
533,5	0,003
534	0,003
534,4	0,003
534,9	0,002
535,3	0,003
535,8	0,003
536,2	0,003
536,7	0,003
537,1	0,003
537,6	0,003
538	0,004
538,5	0,004
538,9	0,004
539,4	0,004
539,8	0,004
540,3	0,004
540,7	0,004
541,2	0,003
541,6	0,003
542,1	0,002
542,5	0,002
543	0,002
543,4	0,002
543,9	0,002
544,3	0,002
544,8	0,002
545,2	0,002
545,7	0,002
546,1	0,002
546,5	0,003
547	0,003
547,4	0,002
547,9	0,002
548,3	0,002
548,8	0,002
549,2	0,002
549,7	0,002
550,1	0,002
550,6	0,002
551	0,003
551,5	0,003
551,9	0,002
552,4	0,003
552,8	0,002
553,3	0,002
553,7	0,002
554,2	0,002
554,6	0,001
555,1	0,001
555,5	0,001
555,9	0,001
556,4	0,001
556,8	0,001
557,3	0,002
557,7	0,002
558,2	0,002
558,6	0,001
559,1	0,002
559,5	0,002
560	0,001
560,4	0,001
560,9	0,001
561,3	0,001
561,8	0,001
562,2	0,001
562,7	0,001
563,1	0,001
563,6	0,001
564	0,001
564,4	0,001
564,9	0,001
565,3	0,001
565,8	0,001
566,2	0,001
566,7	0,002
567,1	0,002
567,6	0,002
568	0,002
568,5	0,001
568,9	0,002
569,4	0,002
569,8	0,002
570,3	0,002
570,7	0,002
571,1	0,002
571,6	0,002
572	0,002
572,5	0,002
572,9	0,002
573,4	0,002
573,8	0,002
574,3	0,001
574,7	0,001
575,2	0,001
575,6	0,001
576,1	0,001
576,5	0,001
576,9	0,001
577,4	0,001
577,8	0,001
578,3	0,001
578,7	0,001
579,2	0,002
579,6	0,002
580,1	0,002
580,5	0,002
581	0,001
581,4	0,001
581,9	0,001
582,3	0,001
582,7	0,001
583,2	0,001
583,6	0,001
584,1	0,001
584,5	0,001
585	0,001
585,4	0,001
585,9	0,002
586,3	0,001
586,8	0,001
587,2	0,001
587,6	0,001
588,1	0,001
588,5	0,001
589	0,001
589,4	0,001
589,9	0,001
590,3	0,001
590,8	0,001
591,2	0,001
591,7	0,001
592,1	0,001
592,5	0,001
593	0,001
593,4	0,001
593,9	0,001
594,3	0,001
594,8	0,001
595,2	0,001
595,7	0,001
596,1	0,001
596,6	0
597	0,001
597,4	0,001
597,9	0,001
598,3	0,001
598,8	0,001
599,2	0
599,7	0,001
600,1	0
600,6	0,001
601	0
601,4	0
601,9	0
602,3	0
602,8	0
603,2	0
603,7	0
604,1	0
604,6	0
605	0
605,4	0
605,9	0
606,3	0
606,8	0
607,2	0
607,7	-0
608,1	0
608,6	0
609	-0
609,4	-0
609,9	-0
610,3	-0
610,8	-0
611,2	-0
611,7	0
612,1	0
612,6	0
613	0,001
613,4	0
613,9	0
614,3	0
614,8	0
615,2	0
615,7	-0
616,1	-0
616,6	0
617	0
617,4	0,001
617,9	0,001
618,3	0,001
618,8	0,001
619,2	0,001
619,7	0
620,1	0
620,5	0
621	0
621,4	0
621,9	0
622,3	0,001
622,8	0,001
623,2	0
623,6	0,001
624,1	0
624,5	0
625	0
625,4	0
625,9	0,001
626,3	0
626,8	0
627,2	0,001
627,6	0,001
628,1	0,001
628,5	0,001
629	0
629,4	0
629,9	0
630,3	0
630,7	0
631,2	-0
631,6	-0,001
632,1	-0,001
632,5	-0
633	-0
633,4	-0
633,8	-0
634,3	0
634,7	0
635,2	0
635,6	-0
636,1	-0
636,5	-0
636,9	-0
637,4	-0
637,8	-0,001
638,3	-0,001
638,7	-0,001
639,2	-0,001
639,6	-0,001
640	-0,001
640,5	-0,001
640,9	-0
641,4	-0
641,8	-0,001
642,2	-0,001
642,7	-0
643,1	-0,001
643,6	-0,001
644	-0,001
644,5	-0,001
644,9	-0,001
645,3	-0,001
645,8	-0,001
646,2	-0
646,7	0
647,1	0
647,6	0
648	-0
648,4	-0
648,9	-0
649,3	-0
649,8	-0,001
650,2	-0,001
650,6	-0,001
651,1	-0,001
651,5	-0,001
652	-0,001
652,4	-0,001
652,9	-0,001
653,3	-0,001
653,7	-0
654,2	-0
654,6	0
655,1	0
655,5	-0
655,9	-0
656,4	-0
656,8	-0
657,3	-0
657,7	-0,001
658,2	-0,001
658,6	-0,001
659	-0,001
659,5	-0,001
659,9	-0,002
660,4	-0,002
660,8	-0,002
661,2	-0,002
661,7	-0,002
662,1	-0,001
662,6	-0,001
663	-0,001
663,4	-0,001
663,9	-0,001
664,3	-0,001
664,8	-0,001
665,2	-0,002
665,6	-0,002
666,1	-0,002
666,5	-0,002
667	-0,002
667,4	-0,002
667,9	-0,001
668,3	-0,001
668,7	-0,001
669,2	-0,001
669,6	-0,001
670,1	-0,001
670,5	-0,001
670,9	-0,001
671,4	-0,001
671,8	-0,001
672,3	-0,001
672,7	-0,001
673,1	-0,001
673,6	-0,001
674	-0,001
674,5	-0,001
674,9	-0,001
675,3	-0,001
675,8	-0,001
676,2	-0
676,7	-0
677,1	-0
677,5	-0
678	-0
678,4	-0
678,9	-0,001
679,3	-0,001
679,7	-0,001
680,2	-0,001
680,6	-0,001
681,1	-0,001
681,5	-0,001
681,9	-0,001
682,4	-0,001
682,8	-0,001
683,3	-0
683,7	-0
684,1	-0,001
684,6	-0,001
685	-0,001
685,5	-0,001
685,9	-0,001
686,3	-0,001
686,8	-0,001
687,2	-0,001
687,7	-0,001
688,1	-0,001
688,5	-0,001
689	-0,001
689,4	-0,001
689,9	-0,001
690,3	-0,001
690,7	-0,001
691,2	-0,001
691,6	-0,002
692	-0,002
692,5	-0,002
692,9	-0,002
693,4	-0,002
693,8	-0,002
694,2	-0,002
694,7	-0,002
695,1	-0,001
695,6	-0,001
696	-0,001
696,4	-0,001
696,9	-0,001
697,3	-0,001
697,8	-0
698,2	-0,001
698,6	-0,001
699,1	-0,001
699,5	-0,001
699,9	-0,001
700,4	-0,002
700,8	-0,002
701,3	-0,002
701,7	-0,002
702,1	-0,002
702,6	-0,002
703	-0,002
703,5	-0,002
703,9	-0,001
704,3	-0,001
704,8	-0,001
705,2	-0,001
705,6	-0,001
706,1	-0,001
706,5	-0,001
707	-0,001
707,4	-0,001
707,8	-0,001
708,3	-0,001
708,7	-0,001
709,2	-0,001
709,6	-0,001
710	-0,002
710,5	-0,001
710,9	-0,001
711,3	-0,001
711,8	-0,001
712,2	-0,001
712,7	-0,001
713,1	-0,001
713,5	-0,001
714	-0,001
714,4	-0,001
714,8	-0,001
715,3	-0,001
715,7	-0,001
716,2	-0,001
716,6	-0
717	-0
717,5	-0,001
717,9	-0
718,3	-0,001
718,8	-0,001
719,2	-0
719,7	-0
720,1	-0,001
720,5	-0,001
721	-0,001
721,4	-0,001
721,8	-0,001
722,3	-0,001
722,7	-0,001
723,2	-0,001
723,6	-0,001
724	-0,001
724,5	-0,001
724,9	-0,001
725,3	-0,001
725,8	-0,001
726,2	-0,001
726,7	-0,001
727,1	-0,001
727,5	-0,001
728	-0,001
728,4	-0,001
728,8	-0,001
729,3	-0,002
729,7	-0,002
730,1	-0,001
730,6	-0,002
731	-0,001
731,5	-0,001
731,9	-0,001
732,3	-0,001
732,8	-0,001
733,2	-0,001
733,6	-0,001
734,1	-0,001
734,5	-0,001
734,9	-0,002
735,4	-0,001
735,8	-0,001
736,3	-0,001
736,7	-0,001
737,1	-0,001
737,6	-0,001
738	-0,001
738,4	-0
738,9	-0,001
739,3	-0,001
739,7	-0,001
740,2	-0,001
740,6	-0,001
741,1	-0,001
741,5	-0,002
741,9	-0,002
742,4	-0,002
742,8	-0,001
743,2	-0,001
743,7	-0,002
744,1	-0,002
744,5	-0,002
745	-0,001
745,4	-0,002
745,8	-0,002
746,3	-0,002
746,7	-0,002
747,2	-0,002
747,6	-0,002
748	-0,001
748,5	-0,001
748,9	-0,001
749,3	-0,001
749,8	-0,001
750,2	-0,001
750,6	-0,001
751,1	-0,001
751,5	-0,001
751,9	-0,001
752,4	-0,001
752,8	-0,001
753,3	-0,001
753,7	-0,001
754,1	-0,001
754,6	-0,001
755	-0,001
755,4	-0,001
755,9	-0,001
756,3	-0,002
756,7	-0,001
757,2	-0,001
757,6	-0,001
758	-0,001
758,5	-0,001
758,9	-0,001
759,3	-0,001
759,8	-0,001
760,2	-0,002
760,6	-0,002
761,1	-0,002
761,5	-0,002
761,9	-0,002
762,4	-0,002
762,8	-0,002
763,3	-0,002
763,7	-0,002
764,1	-0,002
764,6	-0,002
765	-0,002
765,4	-0,002
765,9	-0,002
766,3	-0,001
766,7	-0,001
767,2	-0,001
767,6	-0,001
768	-0,001
768,5	-0,001
768,9	-0,001
769,3	-0,001
769,8	-0,001
770,2	-0,001
770,6	-0,001
771,1	-0,002
771,5	-0,002
771,9	-0,002
772,4	-0,002
772,8	-0,002
773,2	-0,001
773,7	-0,002
774,1	-0,002
774,5	-0,002
775	-0,002
775,4	-0,002
775,8	-0,002
776,3	-0,002
776,7	-0,002
777,1	-0,002
777,6	-0,002
778	-0,001
778,4	-0,001
778,9	-0,001
779,3	-0,001
779,7	-0,002
780,2	-0,002
780,6	-0,002
781	-0,002
781,5	-0,002
781,9	-0,002
782,3	-0,002
782,8	-0,002
783,2	-0,002
783,6	-0,002
784,1	-0,002
784,5	-0,002
784,9	-0,003
785,4	-0,002
785,8	-0,002
786,2	-0,002
786,7	-0,002
787,1	-0,002
787,5	-0,002
788	-0,001
788,4	-0,001
788,8	-0,001
789,3	-0,001
789,7	-0,001
790,1	-0,001
790,6	-0,001
791	-0,001
791,4	-0,001
791,9	-0,001
792,3	-0,001
792,7	-0,001
793,2	-0,001
793,6	-0,001
794	-0,001
794,5	-0,001
794,9	-0,001
795,3	-0,001
795,8	-0,001
796,2	-0,001
796,6	-0,001
797,1	-0,001
797,5	-0,002
797,9	-0,002
798,4	-0,002
798,8	-0,002
799,2	-0,002
799,7	-0,002
800,1	-0,002
800,5	-0,002
801	-0,002
801,4	-0,002
801,8	-0,002
802,2	-0,002
802,7	-0,001
803,1	-0,001
803,5	-0,001
804	-0,001
804,4	-0,001
804,8	-0,001
805,3	-0,001
805,7	-0,002
806,1	-0,002
806,6	-0,002
807	-0,002
807,4	-0,001
807,9	-0,001
808,3	-0,001
808,7	-0,001
809,2	-0,001
809,6	-0,001
810	-0,001
810,4	-0
810,9	-0,001
811,3	-0,001
811,7	-0,001
812,2	-0,002
812,6	-0,002
813	-0,002
813,5	-0,002
813,9	-0,002
814,3	-0,002
814,8	-0,002
815,2	-0,002
815,6	-0,002
816,1	-0,002
816,5	-0,002
816,9	-0,003
817,3	-0,002
817,8	-0,002
818,2	-0,002
818,6	-0,002
819,1	-0,002
819,5	-0,002
819,9	-0,002
820,4	-0,002
820,8	-0,002
821,2	-0,002
821,7	-0,002
822,1	-0,002
822,5	-0,002
822,9	-0,002
823,4	-0,002
823,8	-0,002
824,2	-0,001
824,7	-0,002
825,1	-0,002
825,5	-0,001
826	-0,001
826,4	-0,002
826,8	-0,002
827,3	-0,002
827,7	-0,002
828,1	-0,002
828,5	-0,002
829	-0,002
829,4	-0,002
829,8	-0,002
830,3	-0,002
830,7	-0,002
831,1	-0,002
831,6	-0,002
832	-0,002
832,4	-0,002
832,8	-0,001
833,3	-0,001
833,7	-0,001
834,1	-0,001
834,6	-0,001
835	-0
835,4	-0,001
835,8	-0,001
836,3	-0,001
836,7	-0,002
837,1	-0,002
837,6	-0,002
838	-0,002
838,4	-0,002
838,9	-0,002
839,3	-0,002
839,7	-0,001
840,1	-0,001
840,6	-0,001
841	-0,001
841,4	-0,001
841,9	-0,001
842,3	-0,002
842,7	-0,002
843,1	-0,002
843,6	-0,002
844	-0,002
844,4	-0,002
844,9	-0,002
845,3	-0,002
845,7	-0,002
846,2	-0,002
846,6	-0,002
847	-0,002
847,4	-0,003
847,9	-0,003
848,3	-0,002
848,7	-0,002
849,2	-0,002
849,6	-0,002
850	-0,002
850,4	-0,002
850,9	-0,002
851,3	-0,002
851,7	-0,001
852,2	-0,001
852,6	-0,001
853	-0,001
853,4	-0,001
853,9	-0,001
854,3	-0,001
854,7	-0,001
855,2	-0,002
855,6	-0,002
856	-0,001
856,4	-0,001
856,9	-0,001
857,3	-0,001
857,7	-0,001
858,2	-0,001
858,6	-0,001
859	-0,001
859,4	-0,001
859,9	-0
860,3	-0
860,7	-0
861,1	-0,001
861,6	-0,001
862	-0,001
862,4	-0,002
862,9	-0,002
863,3	-0,002
863,7	-0,002
864,1	-0,001
864,6	-0,001
865	-0,001
865,4	-0
865,9	-0
866,3	-0,001
866,7	-0,001
867,1	-0,001
867,6	-0,001
868	-0,001
868,4	-0,001
868,8	-0,001
869,3	-0,001
869,7	-0,001
870,1	-0,001
870,6	-0,001
871	-0,002
871,4	-0,002
871,8	-0,002
872,3	-0,002
872,7	-0,002
873,1	-0,002
873,5	-0,002
874	-0,002
874,4	-0,002
874,8	-0,002
875,3	-0,002
875,7	-0,002
876,1	-0,002
876,5	-0,002
877	-0,002
877,4	-0,002
877,8	-0,001
878,2	-0,001
878,7	-0,001
879,1	-0,001
879,5	-0,002
879,9	-0,002
880,4	-0,002
880,8	-0,002
881,2	-0,002
881,7	-0,002
882,1	-0,001
882,5	-0,001
882,9	-0,001
883,4	-0,001
883,8	-0,001
884,2	-0,001
884,6	-0,001
885,1	-0,001
885,5	-0,001
885,9	-0,001
886,3	-0,002
886,8	-0,002
887,2	-0,002
887,6	-0,002
888	-0,002
888,5	-0,002
888,9	-0,002
889,3	-0,001
889,8	-0,001
890,2	-0,001
890,6	-0,001
891	-0,001
891,5	-0,001
891,9	-0
892,3	-0,001
892,7	-0,001
893,2	-0,001
893,6	-0,001
894	-0,001
894,4	-0,001
894,9	-0,001
895,3	-0,001
895,7	-0,001
896,1	-0,001
896,6	-0,001
897	-0,001
897,4	-0,001
897,8	-0,001
898,3	-0,001
898,7	-0,001
899,1	-0,001
899,5	-0,002
900	-0,002
900,4	-0,002
900,8	-0,002
901,2	-0,002
901,7	-0,002
902,1	-0,002
902,5	-0,001
902,9	-0,001
903,4	-0,001
903,8	-0,001
904,2	-0,001
904,6	-0,001
905,1	-0,001
905,5	-0,001
905,9	-0,001
906,3	-0,001
906,8	-0,001
907,2	-0,001
907,6	-0,001
908	-0,001
908,5	-0,001
908,9	-0,001
909,3	-0,001
909,7	-0,001
910,2	-0,001
910,6	-0,001
911	-0,001
911,4	-0,001
911,9	-0,001
912,3	-0,001
912,7	-0,001
913,1	-0,001
913,6	-0,001
914	-0,001
914,4	-0,002
914,8	-0,002
915,3	-0,002
915,7	-0,002
916,1	-0,002
916,5	-0,002
916,9	-0,003
917,4	-0,003
917,8	-0,003
918,2	-0,003
918,6	-0,003
919,1	-0,003
919,5	-0,002
919,9	-0,003
920,3	-0,003
920,8	-0,002
921,2	-0,002
921,6	-0,001
922	-0,001
922,5	-0,001
922,9	0
923,3	0
923,7	-0
924,2	-0
924,6	-0,001
925	-0,002
925,4	-0,002
925,8	-0,002
926,3	-0,002
926,7	-0,002
927,1	-0,002
927,5	-0,002
928	-0,001
928,4	-0,001
928,8	-0,001
929,2	-0,001
929,7	-0,001
930,1	-0
930,5	-0
930,9	-0
931,3	-0
931,8	-0
932,2	-0
932,6	-0,001
933	-0,001
933,5	-0
933,9	-0
934,3	-0
934,7	-0,001
935,2	-0,001
935,6	-0,001
936	-0,001
936,4	-0,001
936,8	-0,002
937,3	-0,001
937,7	-0,001
938,1	-0,001
938,5	-0,001
939	-0,001
939,4	-0,001
939,8	-0,002
940,2	-0,002
940,6	-0,002
941,1	-0,002
941,5	-0,002
941,9	-0,002
942,3	-0,001
942,8	-0,001
943,2	-0,001
943,6	-0,001
944	-0,002
944,4	-0,002
944,9	-0,002
945,3	-0,002
945,7	-0,002
946,1	-0,002
946,6	-0,002
947	-0,002
947,4	-0,001
947,8	-0,001
948,2	-0,001
948,7	-0,001
949,1	-0,001
949,5	-0,001
949,9	-0,001
950,3	-0,001
950,8	-0,001
951,2	-0,001
951,6	-0,002
952	-0,002
952,5	-0,002
952,9	-0,002
953,3	-0,002
953,7	-0,002
954,1	-0,002
954,6	-0,001
955	-0,001
955,4	-0,002
955,8	-0,001
956,2	-0,001
956,7	-0,002
957,1	-0,002
957,5	-0,003
957,9	-0,002
958,3	-0,002
958,8	-0,003
959,2	-0,003
959,6	-0,003
960	-0,003
960,5	-0,002
960,9	-0,002
961,3	-0,002
961,7	-0,002
962,1	-0,002
962,6	-0,002
963	-0,001
963,4	-0,001
963,8	-0,001
964,2	-0
964,7	0,001
965,1	0,001
965,5	0,001
965,9	0,001
966,3	0,001
966,8	0,001
967,2	0
967,6	-0,001
968	-0,001
968,4	-0,001
968,9	-0,002
969,3	-0,002
969,7	-0,002
970,1	-0,003
970,5	-0,002
971	-0,003
971,4	-0,002
971,8	-0,002
972,2	-0,003
972,6	-0,003
973,1	-0,002
973,5	-0,002
973,9	-0,003
974,3	-0,002
974,7	-0,003
975,2	-0,002
975,6	-0,002
976	-0,002
976,4	-0,002
976,8	-0,001
977,3	-0,002
977,7	-0,002
978,1	-0,002
978,5	-0,002
978,9	-0,002
979,4	-0,002
979,8	-0,002
980,2	-0,001
980,6	-0,001
981	-0,001
981,5	-0,001
981,9	-0,001
982,3	-0,001
982,7	-0,001
983,1	-0,002
983,6	-0,002
984	-0,002
984,4	-0,002
984,8	-0,002
985,2	-0,002
985,6	-0,002
986,1	-0,002
986,5	-0,002
986,9	-0,001
987,3	-0,001
987,7	-0,001
988,2	-0
988,6	-0
989	-0
989,4	-0,001
989,8	-0,002
990,3	-0,001
990,7	-0,002
991,1	-0,003
991,5	-0,003
991,9	-0,003
992,3	-0,003
992,8	-0,003
993,2	-0,003
993,6	-0,003
994	-0,002
994,4	-0,002
994,9	-0,002
995,3	-0,002
995,7	-0,002
996,1	-0,002
996,5	-0,002
996,9	-0,002
997,4	-0,002
997,8	-0,002
998,2	-0,002
998,6	-0,002
999	-0,002
999,5	-0,002
999,9	-0,002
1000,3	-0,002
1000,7	-0,003
1001,1	-0,002
1001,5	-0,002
1002	-0,002
1002,4	-0,001
1002,8	-0,001
1003,2	-0
1003,6	-0,001
1004	-0,001
1004,5	-0,001
1004,9	-0,001
1005,3	-0,001
1005,7	-0,001
1006,1	-0,001
1006,6	-0,001
1007	-0,001
1007,4	-0,002
1007,8	-0,002
1008,2	-0,002
1008,6	-0,002
1009,1	-0,002
1009,5	-0,002
1009,9	-0,002
1010,3	-0,002
1010,7	-0,002
1011,1	-0,001
1011,6	-0,001
1012	-0,001
1012,4	-0,001
1012,8	-0
1013,2	-0,001
1013,6	-0,001
1014,1	-0,001
1014,5	-0
1014,9	-0
1015,3	-0
1015,7	-0,001
1016,1	-0
1016,6	-0
1017	-0
1017,4	-0
1017,8	-0,001
1018,2	-0,001
1018,6	-0,001
1019,1	-0,002
1019,5	-0,002
1019,9	-0,002
1020,3	-0,003
1020,7	-0,003
1021,1	-0,002
1021,6	-0,002
1022	-0,003
1022,4	-0,002
1022,8	-0,002
1023,2	-0,001
1023,6	-0
1024,1	-0
1024,5	-0,001
1024,9	-0
1025,3	-0
1025,7	0,001
1026,1	-0
1026,6	-0
1027	-0
1027,4	-0
1027,8	-0,001
1028,2	-0,001
1028,6	-0,001
1029	-0,001
1029,5	-0,001
1029,9	-0,002
1030,3	-0,002
1030,7	-0,001
1031,1	-0,001
1031,5	-0,001
1032	-0,002
1032,4	-0,002
1032,8	-0,001
1033,2	-0,001
1033,6	-0,002
1034	-0,002
1034,4	-0,002
1034,9	-0,002
1035,3	-0,002
1035,7	-0,002
1036,1	-0,002
1036,5	-0,002
1036,9	-0,002
1037,4	-0,002
1037,8	-0,001
1038,2	-0,001
1038,6	-0,001
1039	-0,001
1039,4	-0,001
1039,8	-0,001
1040,3	-0,001
1040,7	-0,001
1041,1	-0,002
1041,5	-0,002
1041,9	-0,002
1042,3	-0,001
1042,7	-0,002
1043,2	-0,001
1043,6	-0,002
1044	-0,001
1044,4	-0,002
1044,8	-0,002
1045,2	-0,003
1045,6	-0,003
1046,1	-0,002
1046,5	-0,003
1046,9	-0,003
1047,3	-0,003
1047,7	-0,003
1048,1	-0,003
1048,5	-0,003
1049	-0,003
1049,4	-0,003
1049,8	-0,002
1050,2	-0,002
1050,6	-0,001
1051	-0,001
1051,4	-0,001
1051,9	-0,001
1052,3	-0,001
1052,7	-0,001
1053,1	-0,001
1053,5	-0,001
1053,9	-0,001
1054,3	-0,001
1054,8	-0,002
1055,2	-0,001
1055,6	-0,002
1056	-0,002
1056,4	-0,002
1056,8	-0,002
1057,2	-0,002
1057,6	-0,002
1058,1	-0,002
1058,5	-0,002
1058,9	-0,002
1059,3	-0,001
1059,7	-0,001
1060,1	-0,001
1060,5	-0,001
1061	-0,001
1061,4	-0,001
1061,8	-0,001
1062,2	-0,002
1062,6	-0,003
1063	-0,002
1063,4	-0,003
1063,8	-0,003
1064,3	-0,003
1064,7	-0,004
1065,1	-0,004
1065,5	-0,005
1065,9	-0,005
1066,3	-0,005
1066,7	-0,005
1067,1	-0,005
1067,6	-0,003
1068	-0,004
1068,4	-0,003
1068,8	-0,003
1069,2	-0,003
1069,6	-0,003
1070	-0,003
1070,4	-0,003
1070,9	-0,002
1071,3	-0,002
1071,7	-0,001
1072,1	-0,003
1072,5	-0,002
1072,9	-0,003
1073,3	-0,004
1073,7	-0,003
1074,2	-0,002
1074,6	-0,003
1075	-0,002
1075,4	-0,002
1075,8	-0,002
1076,2	-0,003
1076,6	-0,004
1077	-0,004
1077,5	-0,004
1077,9	-0,004
1078,3	-0,003
1078,7	-0,001
1079,1	0
1079,5	0,001
1079,9	0,002
1080,3	0
1080,7	0,001
1081,2	0
1081,6	0
1082	-0,002
1082,4	-0,001
1082,8	-0,003
1083,2	-0,001
1083,6	-0,002
1084	-0,004
1084,5	-0,005
1084,9	-0,001
1085,3	-0,002
1085,7	-0,001
1086,1	-0,001
1086,5	0
1086,9	0,002
1087,3	0,003
1087,7	0,001
1088,2	0
1088,6	0
1089	0,001
1089,4	-0,002
1089,8	-0,002
1090,2	-0
1090,6	0
1091	-0
1091,4	0
1091,9	-0,002
1092,3	0,003
1092,7	0,003
1093,1	0
1093,5	-0,003
1093,9	-0,001
1094,3	-0,003
1094,7	-0,001
1095,1	-0,003
1095,5	-0,007
1096	-0,001
1096,4	-0
1096,8	-0,005
1097,2	0,001
1097,6	0,002
1098	0
1098,4	0,005
1098,8	0,002
1099,2	0,004
1099,6	0,017
1100,1	0,016
1100,5	0,018
1100,9	0,025
1101,3	0,021
1101,7	0,022
1102,1	0,024
1102,5	0,011
1102,9	0,002
1103,3	-0,01
1103,7	-0,007
1104,2	-0,002
1104,6	-0,002
1105	-0,009
1105,4	0,005
1105,8	0,022
1106,2	0,039
1106,6	0,039
1107	0,045
1107,4	0,049
1107,8	0,135
1108,3	-0
