Data from Absorbance_206.txt Node
Date: Fri Nov 13 21:03:50 MSK 2020
User: vat
Spectrometer: MAYP114033
Trigger mode: 0
Integration Time (sec): 8,000000E-3
Scans to average: 10
Electric dark correction enabled: true
Nonlinearity correction enabled: false
Boxcar width: 3
XAxis mode: Wavelengths
Number of Pixels in Spectrum: 2068
>>>>>Begin Spectral Data<<<<<
199,4	-0,344
199,9	0,342
200,4	0,202
200,8	0,065
201,3	0,067
201,8	0,049
202,2	0,018
202,7	0,034
203,2	0,019
203,6	0,016
204,1	0,046
204,6	0,031
205	0,029
205,5	0,057
206	0,049
206,4	0,064
206,9	0,062
207,4	0,039
207,8	0,052
208,3	0,053
208,8	0,055
209,2	0,05
209,7	0,038
210,2	0,043
210,6	0,052
211,1	0,032
211,5	0,035
212	0,035
212,5	0,051
212,9	0,053
213,4	0,047
213,9	0,051
214,3	0,072
214,8	0,074
215,3	0,062
215,7	0,043
216,2	0,041
216,7	0,051
217,1	0,06
217,6	0,064
218,1	0,066
218,5	0,063
219	0,091
219,5	0,11
219,9	0,12
220,4	0,089
220,9	0,078
221,3	0,083
221,8	0,078
222,3	0,053
222,7	0,044
223,2	0,031
223,6	0,055
224,1	0,051
224,6	0,044
225	0,052
225,5	0,055
226	0,041
226,4	0,029
226,9	0,017
227,4	0,033
227,8	0,027
228,3	0,038
228,8	0,045
229,2	0,052
229,7	0,06
230,2	0,054
230,6	0,054
231,1	0,066
231,5	0,07
232	0,079
232,5	0,077
232,9	0,083
233,4	0,109
233,9	0,096
234,3	0,101
234,8	0,089
235,3	0,087
235,7	0,1
236,2	0,096
236,7	0,076
237,1	0,082
237,6	0,071
238,1	0,088
238,5	0,079
239	0,072
239,4	0,073
239,9	0,077
240,4	0,079
240,8	0,091
241,3	0,087
241,8	0,084
242,2	0,099
242,7	0,098
243,2	0,107
243,6	0,117
244,1	0,109
244,6	0,11
245	0,126
245,5	0,135
245,9	0,153
246,4	0,158
246,9	0,159
247,3	0,179
247,8	0,189
248,3	0,188
248,7	0,192
249,2	0,191
249,7	0,196
250,1	0,196
250,6	0,193
251	0,198
251,5	0,204
252	0,208
252,4	0,212
252,9	0,214
253,4	0,22
253,8	0,224
254,3	0,225
254,8	0,227
255,2	0,227
255,7	0,231
256,1	0,234
256,6	0,235
257,1	0,238
257,5	0,242
258	0,245
258,5	0,248
258,9	0,251
259,4	0,254
259,9	0,257
260,3	0,261
260,8	0,264
261,2	0,268
261,7	0,271
262,2	0,275
262,6	0,279
263,1	0,284
263,6	0,289
264	0,292
264,5	0,296
264,9	0,302
265,4	0,307
265,9	0,311
266,3	0,315
266,8	0,318
267,3	0,323
267,7	0,327
268,2	0,331
268,7	0,335
269,1	0,34
269,6	0,344
270	0,347
270,5	0,352
271	0,356
271,4	0,36
271,9	0,363
272,4	0,366
272,8	0,37
273,3	0,375
273,7	0,378
274,2	0,381
274,7	0,384
275,1	0,387
275,6	0,391
276,1	0,394
276,5	0,396
277	0,399
277,4	0,401
277,9	0,403
278,4	0,405
278,8	0,407
279,3	0,407
279,8	0,409
280,2	0,41
280,7	0,411
281,1	0,412
281,6	0,412
282,1	0,412
282,5	0,413
283	0,412
283,4	0,41
283,9	0,409
284,4	0,407
284,8	0,404
285,3	0,402
285,8	0,399
286,2	0,397
286,7	0,393
287,1	0,39
287,6	0,387
288,1	0,383
288,5	0,379
289	0,375
289,5	0,369
289,9	0,365
290,4	0,36
290,8	0,354
291,3	0,349
291,8	0,343
292,2	0,337
292,7	0,331
293,1	0,325
293,6	0,318
294,1	0,312
294,5	0,305
295	0,298
295,5	0,29
295,9	0,283
296,4	0,276
296,8	0,269
297,3	0,261
297,8	0,255
298,2	0,248
298,7	0,241
299,1	0,234
299,6	0,227
300,1	0,221
300,5	0,214
301	0,208
301,5	0,201
301,9	0,195
302,4	0,188
302,8	0,182
303,3	0,176
303,8	0,17
304,2	0,164
304,7	0,159
305,1	0,154
305,6	0,149
306,1	0,144
306,5	0,14
307	0,135
307,4	0,131
307,9	0,127
308,4	0,123
308,8	0,119
309,3	0,115
309,8	0,112
310,2	0,108
310,7	0,105
311,1	0,102
311,6	0,099
312,1	0,096
312,5	0,094
313	0,091
313,4	0,089
313,9	0,086
314,4	0,084
314,8	0,082
315,3	0,08
315,7	0,078
316,2	0,077
316,7	0,075
317,1	0,073
317,6	0,072
318	0,071
318,5	0,068
319	0,067
319,4	0,067
319,9	0,066
320,3	0,065
320,8	0,064
321,3	0,063
321,7	0,062
322,2	0,062
322,6	0,061
323,1	0,06
323,6	0,06
324	0,059
324,5	0,059
324,9	0,058
325,4	0,058
325,9	0,057
326,3	0,057
326,8	0,056
327,2	0,055
327,7	0,055
328,2	0,054
328,6	0,053
329,1	0,053
329,5	0,052
330	0,052
330,5	0,051
330,9	0,051
331,4	0,05
331,8	0,05
332,3	0,05
332,8	0,05
333,2	0,05
333,7	0,049
334,1	0,049
334,6	0,048
335,1	0,048
335,5	0,048
336	0,048
336,4	0,049
336,9	0,048
337,4	0,048
337,8	0,047
338,3	0,047
338,7	0,047
339,2	0,046
339,7	0,046
340,1	0,045
340,6	0,045
341	0,045
341,5	0,045
342	0,045
342,4	0,045
342,9	0,044
343,3	0,044
343,8	0,044
344,2	0,044
344,7	0,043
345,2	0,043
345,6	0,043
346,1	0,043
346,5	0,042
347	0,042
347,5	0,043
347,9	0,043
348,4	0,042
348,8	0,042
349,3	0,042
349,8	0,041
350,2	0,041
350,7	0,04
351,1	0,041
351,6	0,041
352	0,041
352,5	0,041
353	0,041
353,4	0,04
353,9	0,04
354,3	0,04
354,8	0,039
355,3	0,039
355,7	0,038
356,2	0,038
356,6	0,038
357,1	0,038
357,5	0,038
358	0,037
358,5	0,037
358,9	0,037
359,4	0,037
359,8	0,037
360,3	0,037
360,8	0,037
361,2	0,037
361,7	0,037
362,1	0,037
362,6	0,036
363	0,036
363,5	0,036
364	0,036
364,4	0,035
364,9	0,035
365,3	0,035
365,8	0,035
366,3	0,034
366,7	0,034
367,2	0,034
367,6	0,034
368,1	0,034
368,5	0,034
369	0,034
369,5	0,034
369,9	0,034
370,4	0,033
370,8	0,033
371,3	0,033
371,7	0,032
372,2	0,032
372,7	0,032
373,1	0,032
373,6	0,031
374	0,031
374,5	0,031
374,9	0,031
375,4	0,031
375,9	0,03
376,3	0,029
376,8	0,029
377,2	0,03
377,7	0,029
378,2	0,029
378,6	0,029
379,1	0,029
379,5	0,029
380	0,029
380,4	0,028
380,9	0,028
381,4	0,028
381,8	0,028
382,3	0,028
382,7	0,027
383,2	0,027
383,6	0,027
384,1	0,027
384,6	0,027
385	0,027
385,5	0,027
385,9	0,026
386,4	0,026
386,8	0,026
387,3	0,026
387,7	0,025
388,2	0,025
388,7	0,025
389,1	0,025
389,6	0,025
390	0,025
390,5	0,025
390,9	0,025
391,4	0,025
391,9	0,025
392,3	0,025
392,8	0,025
393,2	0,025
393,7	0,025
394,1	0,025
394,6	0,025
395,1	0,025
395,5	0,025
396	0,025
396,4	0,024
396,9	0,024
397,3	0,024
397,8	0,024
398,2	0,024
398,7	0,023
399,2	0,023
399,6	0,023
400,1	0,023
400,5	0,022
401	0,022
401,4	0,022
401,9	0,022
402,4	0,022
402,8	0,022
403,3	0,022
403,7	0,023
404,2	0,023
404,6	0,023
405,1	0,022
405,5	0,022
406	0,021
406,5	0,021
406,9	0,021
407,4	0,021
407,8	0,021
408,3	0,021
408,7	0,021
409,2	0,021
409,6	0,022
410,1	0,022
410,6	0,021
411	0,021
411,5	0,021
411,9	0,021
412,4	0,021
412,8	0,02
413,3	0,02
413,7	0,02
414,2	0,02
414,7	0,02
415,1	0,019
415,6	0,02
416	0,02
416,5	0,02
416,9	0,02
417,4	0,02
417,8	0,02
418,3	0,02
418,8	0,02
419,2	0,02
419,7	0,02
420,1	0,019
420,6	0,019
421	0,019
421,5	0,019
421,9	0,018
422,4	0,018
422,8	0,019
423,3	0,018
423,8	0,018
424,2	0,018
424,7	0,018
425,1	0,018
425,6	0,019
426	0,019
426,5	0,019
426,9	0,019
427,4	0,019
427,9	0,019
428,3	0,019
428,8	0,019
429,2	0,018
429,7	0,018
430,1	0,017
430,6	0,017
431	0,017
431,5	0,017
431,9	0,017
432,4	0,017
432,8	0,018
433,3	0,018
433,8	0,017
434,2	0,017
434,7	0,017
435,1	0,017
435,6	0,017
436	0,017
436,5	0,017
436,9	0,018
437,4	0,018
437,8	0,018
438,3	0,018
438,8	0,017
439,2	0,017
439,7	0,016
440,1	0,016
440,6	0,016
441	0,015
441,5	0,015
441,9	0,015
442,4	0,015
442,8	0,015
443,3	0,015
443,7	0,016
444,2	0,016
444,7	0,016
445,1	0,016
445,6	0,016
446	0,016
446,5	0,016
446,9	0,016
447,4	0,015
447,8	0,016
448,3	0,016
448,7	0,016
449,2	0,016
449,6	0,016
450,1	0,015
450,6	0,015
451	0,015
451,5	0,015
451,9	0,015
452,4	0,015
452,8	0,015
453,3	0,016
453,7	0,015
454,2	0,015
454,6	0,015
455,1	0,015
455,5	0,015
456	0,014
456,4	0,014
456,9	0,014
457,3	0,014
457,8	0,014
458,3	0,013
458,7	0,013
459,2	0,014
459,6	0,013
460,1	0,014
460,5	0,014
461	0,015
461,4	0,015
461,9	0,015
462,3	0,015
462,8	0,015
463,2	0,015
463,7	0,015
464,1	0,014
464,6	0,014
465	0,014
465,5	0,014
466	0,014
466,4	0,013
466,9	0,013
467,3	0,013
467,8	0,013
468,2	0,013
468,7	0,013
469,1	0,013
469,6	0,013
470	0,014
470,5	0,013
470,9	0,013
471,4	0,013
471,8	0,013
472,3	0,013
472,7	0,013
473,2	0,013
473,6	0,013
474,1	0,014
474,5	0,013
475	0,013
475,4	0,013
475,9	0,013
476,4	0,013
476,8	0,013
477,3	0,013
477,7	0,013
478,2	0,013
478,6	0,014
479,1	0,014
479,5	0,013
480	0,014
480,4	0,014
480,9	0,013
481,3	0,013
481,8	0,013
482,2	0,014
482,7	0,014
483,1	0,014
483,6	0,014
484	0,014
484,5	0,014
484,9	0,014
485,4	0,013
485,8	0,013
486,3	0,013
486,7	0,012
487,2	0,012
487,6	0,011
488,1	0,012
488,5	0,012
489	0,012
489,4	0,011
489,9	0,012
490,4	0,012
490,8	0,012
491,3	0,012
491,7	0,012
492,2	0,012
492,6	0,012
493,1	0,012
493,5	0,011
494	0,011
494,4	0,011
494,9	0,011
495,3	0,011
495,8	0,012
496,2	0,012
496,7	0,012
497,1	0,012
497,6	0,011
498	0,011
498,5	0,011
498,9	0,011
499,4	0,011
499,8	0,011
500,3	0,011
500,7	0,011
501,2	0,011
501,6	0,011
502,1	0,011
502,5	0,011
503	0,011
503,4	0,011
503,9	0,011
504,3	0,011
504,8	0,011
505,2	0,011
505,7	0,01
506,1	0,01
506,6	0,01
507	0,01
507,5	0,01
507,9	0,01
508,4	0,011
508,8	0,011
509,3	0,011
509,7	0,011
510,2	0,011
510,6	0,011
511,1	0,011
511,5	0,01
512	0,011
512,4	0,011
512,9	0,011
513,3	0,011
513,8	0,011
514,2	0,011
514,7	0,011
515,1	0,011
515,6	0,01
516	0,01
516,5	0,01
516,9	0,01
517,4	0,01
517,8	0,01
518,3	0,01
518,7	0,01
519,2	0,01
519,6	0,01
520,1	0,01
520,5	0,009
521	0,009
521,4	0,009
521,9	0,009
522,3	0,01
522,8	0,01
523,2	0,01
523,7	0,011
524,1	0,01
524,6	0,01
525	0,011
525,5	0,01
525,9	0,01
526,4	0,01
526,8	0,009
527,3	0,009
527,7	0,01
528,2	0,009
528,6	0,01
529,1	0,01
529,5	0,011
530	0,01
530,4	0,01
530,9	0,01
531,3	0,01
531,8	0,009
532,2	0,008
532,6	0,008
533,1	0,008
533,5	0,008
534	0,008
534,4	0,008
534,9	0,008
535,3	0,008
535,8	0,008
536,2	0,008
536,7	0,008
537,1	0,008
537,6	0,008
538	0,007
538,5	0,007
538,9	0,007
539,4	0,007
539,8	0,007
540,3	0,007
540,7	0,007
541,2	0,007
541,6	0,008
542,1	0,007
542,5	0,007
543	0,007
543,4	0,007
543,9	0,007
544,3	0,007
544,8	0,006
545,2	0,006
545,7	0,007
546,1	0,006
546,5	0,007
547	0,006
547,4	0,006
547,9	0,007
548,3	0,007
548,8	0,007
549,2	0,007
549,7	0,007
550,1	0,007
550,6	0,007
551	0,007
551,5	0,008
551,9	0,007
552,4	0,007
552,8	0,008
553,3	0,008
553,7	0,008
554,2	0,008
554,6	0,007
555,1	0,007
555,5	0,007
555,9	0,007
556,4	0,007
556,8	0,007
557,3	0,006
557,7	0,006
558,2	0,006
558,6	0,006
559,1	0,006
559,5	0,006
560	0,005
560,4	0,005
560,9	0,006
561,3	0,006
561,8	0,006
562,2	0,006
562,7	0,006
563,1	0,006
563,6	0,006
564	0,006
564,4	0,006
564,9	0,006
565,3	0,006
565,8	0,006
566,2	0,006
566,7	0,005
567,1	0,005
567,6	0,005
568	0,005
568,5	0,005
568,9	0,005
569,4	0,005
569,8	0,005
570,3	0,005
570,7	0,005
571,1	0,005
571,6	0,005
572	0,005
572,5	0,004
572,9	0,004
573,4	0,004
573,8	0,004
574,3	0,004
574,7	0,004
575,2	0,004
575,6	0,004
576,1	0,004
576,5	0,004
576,9	0,004
577,4	0,004
577,8	0,004
578,3	0,005
578,7	0,005
579,2	0,005
579,6	0,005
580,1	0,005
580,5	0,005
581	0,005
581,4	0,004
581,9	0,004
582,3	0,004
582,7	0,004
583,2	0,003
583,6	0,003
584,1	0,003
584,5	0,003
585	0,003
585,4	0,003
585,9	0,003
586,3	0,003
586,8	0,003
587,2	0,003
587,6	0,003
588,1	0,003
588,5	0,003
589	0,003
589,4	0,003
589,9	0,004
590,3	0,004
590,8	0,003
591,2	0,003
591,7	0,003
592,1	0,003
592,5	0,003
593	0,003
593,4	0,003
593,9	0,004
594,3	0,003
594,8	0,003
595,2	0,003
595,7	0,003
596,1	0,003
596,6	0,003
597	0,003
597,4	0,003
597,9	0,003
598,3	0,003
598,8	0,003
599,2	0,003
599,7	0,003
600,1	0,003
600,6	0,003
601	0,003
601,4	0,003
601,9	0,003
602,3	0,003
602,8	0,003
603,2	0,003
603,7	0,003
604,1	0,003
604,6	0,003
605	0,003
605,4	0,003
605,9	0,002
606,3	0,003
606,8	0,003
607,2	0,003
607,7	0,003
608,1	0,003
608,6	0,003
609	0,004
609,4	0,004
609,9	0,004
610,3	0,004
610,8	0,004
611,2	0,004
611,7	0,004
612,1	0,003
612,6	0,003
613	0,003
613,4	0,003
613,9	0,003
614,3	0,003
614,8	0,003
615,2	0,003
615,7	0,003
616,1	0,002
616,6	0,002
617	0,003
617,4	0,002
617,9	0,003
618,3	0,003
618,8	0,003
619,2	0,002
619,7	0,003
620,1	0,003
620,5	0,002
621	0,002
621,4	0,002
621,9	0,002
622,3	0,002
622,8	0,001
623,2	0,001
623,6	0,001
624,1	0,001
624,5	0,001
625	0,001
625,4	0,002
625,9	0,002
626,3	0,002
626,8	0,003
627,2	0,003
627,6	0,002
628,1	0,002
628,5	0,002
629	0,002
629,4	0,002
629,9	0,002
630,3	0,002
630,7	0,002
631,2	0,002
631,6	0,002
632,1	0,002
632,5	0,002
633	0,002
633,4	0,002
633,8	0,002
634,3	0,002
634,7	0,002
635,2	0,001
635,6	0,001
636,1	0,001
636,5	0,001
636,9	0,001
637,4	0,001
637,8	0,001
638,3	0,001
638,7	0,001
639,2	0,001
639,6	0,001
640	0,001
640,5	0,002
640,9	0,002
641,4	0,002
641,8	0,002
642,2	0,003
642,7	0,003
643,1	0,003
643,6	0,003
644	0,002
644,5	0,002
644,9	0,001
645,3	0,001
645,8	0,001
646,2	0
646,7	0
647,1	0,001
647,6	0,001
648	0,001
648,4	0,002
648,9	0,002
649,3	0,002
649,8	0,002
650,2	0,002
650,6	0,002
651,1	0,002
651,5	0,002
652	0,002
652,4	0,002
652,9	0,002
653,3	0,002
653,7	0,004
654,2	0,003
654,6	0,002
655,1	0,002
655,5	0,001
655,9	0
656,4	0
656,8	-0,001
657,3	-0,001
657,7	-0,001
658,2	-0,001
658,6	0,001
659	0,001
659,5	0,001
659,9	0,001
660,4	0,001
660,8	0,001
661,2	0,001
661,7	0,001
662,1	0,001
662,6	0,001
663	0,001
663,4	0,001
663,9	0,001
664,3	0,001
664,8	0,001
665,2	0,001
665,6	0,001
666,1	0,002
666,5	0,001
667	0,001
667,4	0,002
667,9	0,002
668,3	0,002
668,7	0,002
669,2	0,001
669,6	0,001
670,1	0,001
670,5	0,002
670,9	0,001
671,4	0,001
671,8	0,001
672,3	0,001
672,7	0,001
673,1	0,001
673,6	0,001
674	0,001
674,5	0,001
674,9	0,001
675,3	0,001
675,8	0,001
676,2	0,002
676,7	0,002
677,1	0,002
677,5	0,002
678	0,002
678,4	0,002
678,9	0,002
679,3	0,001
679,7	0,002
680,2	0,002
680,6	0,002
681,1	0,002
681,5	0,001
681,9	0,001
682,4	0,001
682,8	0,001
683,3	0,001
683,7	0,001
684,1	0,001
684,6	0,001
685	0
685,5	0
685,9	0
686,3	0
686,8	0
687,2	-0
687,7	0
688,1	0,001
688,5	0,001
689	0,001
689,4	0,001
689,9	0,001
690,3	0,001
690,7	0,001
691,2	0,001
691,6	0,001
692	0,001
692,5	0,001
692,9	0
693,4	0
693,8	0,001
694,2	0,001
694,7	0,001
695,1	0,001
695,6	0,001
696	0,001
696,4	0,001
696,9	0
697,3	0
697,8	-0
698,2	-0
698,6	-0
699,1	-0
699,5	-0
699,9	-0
700,4	0
700,8	0
701,3	0
701,7	0
702,1	0
702,6	0,001
703	0,001
703,5	0,001
703,9	0,001
704,3	0,001
704,8	0,001
705,2	0,001
705,6	0,001
706,1	0
706,5	0
707	0,001
707,4	0,001
707,8	0
708,3	0
708,7	0
709,2	0,001
709,6	0,001
710	0,001
710,5	0,001
710,9	0,001
711,3	0,001
711,8	0,001
712,2	0,001
712,7	0,001
713,1	0,001
713,5	0,001
714	0,001
714,4	0
714,8	0,001
715,3	0,001
715,7	0,001
716,2	0,001
716,6	0,001
717	0,001
717,5	0,001
717,9	0,001
718,3	0,001
718,8	0,001
719,2	0
719,7	0
720,1	0
720,5	0
721	0
721,4	0
721,8	0
722,3	0,001
722,7	0
723,2	0,001
723,6	0,001
724	0,001
724,5	0,001
724,9	0,001
725,3	0,001
725,8	0,001
726,2	0,001
726,7	0,001
727,1	0,001
727,5	0,001
728	0,001
728,4	0,001
728,8	0,001
729,3	0,001
729,7	0
730,1	0
730,6	0
731	0
731,5	0
731,9	0
732,3	0
732,8	0
733,2	0,001
733,6	0,001
734,1	0,001
734,5	0,001
734,9	0,001
735,4	0,001
735,8	0,001
736,3	0,001
736,7	0,001
737,1	0,001
737,6	0,001
738	0
738,4	-0
738,9	-0
739,3	-0
739,7	-0
740,2	-0
740,6	-0
741,1	-0
741,5	-0
741,9	-0
742,4	-0
742,8	-0
743,2	-0
743,7	0
744,1	0
744,5	0
745	0
745,4	0
745,8	0
746,3	0
746,7	0
747,2	-0
747,6	0
748	0
748,5	0
748,9	0
749,3	0
749,8	0
750,2	0
750,6	0,001
751,1	0
751,5	0,001
751,9	0,001
752,4	0,001
752,8	0,001
753,3	0
753,7	0
754,1	0
754,6	0
755	0
755,4	-0
755,9	0,001
756,3	0,001
756,7	0,001
757,2	0,001
757,6	0,001
758	0,001
758,5	0,001
758,9	0,001
759,3	0,001
759,8	0,001
760,2	0,001
760,6	0,001
761,1	0,001
761,5	0,002
761,9	0,001
762,4	0,002
762,8	0,002
763,3	0,002
763,7	0,002
764,1	0,002
764,6	0,001
765	0,001
765,4	0,001
765,9	0
766,3	0
766,7	0
767,2	-0
767,6	-0
768	-0
768,5	-0
768,9	-0
769,3	-0
769,8	-0
770,2	-0
770,6	0
771,1	0,001
771,5	0,001
771,9	0,001
772,4	0,002
772,8	0,002
773,2	0,002
773,7	0,003
774,1	0,003
774,5	0,003
775	0,002
775,4	0,002
775,8	0,002
776,3	0,002
776,7	0,002
777,1	0,001
777,6	0,001
778	0,001
778,4	0,002
778,9	0,001
779,3	0,001
779,7	0,001
780,2	0,001
780,6	0,002
781	0,002
781,5	0,002
781,9	0,003
782,3	0,003
782,8	0,003
783,2	0,003
783,6	0,003
784,1	0,002
784,5	0,003
784,9	0,002
785,4	0,002
785,8	0,002
786,2	0,001
786,7	0,001
787,1	0
787,5	-0
788	-0
788,4	-0,001
788,8	-0,001
789,3	-0,001
789,7	-0,001
790,1	-0
790,6	-0
791	-0
791,4	0
791,9	0
792,3	0,001
792,7	0,001
793,2	0,001
793,6	0,001
794	0,001
794,5	0,001
794,9	0,001
795,3	0,001
795,8	0,001
796,2	0,001
796,6	0,001
797,1	0,002
797,5	0,002
797,9	0,002
798,4	0,002
798,8	0,002
799,2	0,002
799,7	0,002
800,1	0,001
800,5	0,001
801	0,001
801,4	0,001
801,8	0,001
802,2	0
802,7	0
803,1	0,001
803,5	0
804	0,001
804,4	0
804,8	0
805,3	0,001
805,7	0
806,1	0
806,6	0
807	0
807,4	0,001
807,9	0,001
808,3	0,001
808,7	0,001
809,2	0,001
809,6	0,001
810	0,001
810,4	0,001
810,9	0
811,3	0
811,7	0
812,2	0
812,6	0
813	-0
813,5	-0
813,9	0
814,3	0
814,8	0
815,2	0
815,6	-0
816,1	-0
816,5	-0
816,9	-0,001
817,3	-0,001
817,8	-0,001
818,2	-0,001
818,6	-0
819,1	0
819,5	0
819,9	0,001
820,4	0,001
820,8	0,001
821,2	0,001
821,7	0,001
822,1	0,001
822,5	0,001
822,9	0,001
823,4	0,001
823,8	0,001
824,2	0,001
824,7	0
825,1	0
825,5	-0
826	0
826,4	0
826,8	0
827,3	0
827,7	0
828,1	0
828,5	0,001
829	0,001
829,4	0,001
829,8	0,001
830,3	0,001
830,7	0,001
831,1	0,001
831,6	0,001
832	0,001
832,4	0
832,8	0
833,3	0,001
833,7	0,001
834,1	0
834,6	0
835	0
835,4	0,001
835,8	0
836,3	0
836,7	0,001
837,1	0,001
837,6	0,001
838	0,001
838,4	0,002
838,9	0,002
839,3	0,002
839,7	0,002
840,1	0,001
840,6	0,001
841	0,001
841,4	0,001
841,9	0,001
842,3	0,001
842,7	0,001
843,1	0,001
843,6	0,001
844	0,001
844,4	0,001
844,9	0
845,3	0
845,7	-0
846,2	0
846,6	0
847	0,001
847,4	0,001
847,9	0,002
848,3	0,002
848,7	0,002
849,2	0,003
849,6	0,002
850	0,002
850,4	0,002
850,9	0,002
851,3	0,002
851,7	0,003
852,2	0,002
852,6	0,002
853	0,002
853,4	0,002
853,9	0,002
854,3	0,001
854,7	0,001
855,2	0,001
855,6	0,001
856	0,001
856,4	0,001
856,9	0,002
857,3	0,002
857,7	0,002
858,2	0,002
858,6	0,002
859	0,002
859,4	0,002
859,9	0,002
860,3	0,002
860,7	0,002
861,1	0,002
861,6	0,002
862	0,002
862,4	0,002
862,9	0,002
863,3	0,002
863,7	0,002
864,1	0,002
864,6	0,001
865	0,001
865,4	0,001
865,9	0,001
866,3	0
866,7	0
867,1	0
867,6	-0
868	-0
868,4	-0
868,8	-0
869,3	0
869,7	0
870,1	0,001
870,6	0,001
871	0,001
871,4	0,001
871,8	0,001
872,3	0
872,7	0
873,1	0
873,5	-0
874	-0
874,4	-0
874,8	-0
875,3	0
875,7	0
876,1	-0
876,5	0
877	0
877,4	0,001
877,8	0,001
878,2	0,001
878,7	0,001
879,1	0,001
879,5	0
879,9	0
880,4	0
880,8	0
881,2	0,001
881,7	0,001
882,1	0,001
882,5	0,001
882,9	0,002
883,4	0,001
883,8	0,001
884,2	0,001
884,6	0,001
885,1	0,001
885,5	0,001
885,9	0,001
886,3	0
886,8	0
887,2	0
887,6	0
888	0
888,5	0,001
888,9	0,001
889,3	0,001
889,8	0,001
890,2	0,001
890,6	0
891	0
891,5	0
891,9	0
892,3	0,001
892,7	0,001
893,2	0,001
893,6	0,002
894	0,002
894,4	0,002
894,9	0,001
895,3	0,001
895,7	0,001
896,1	0,001
896,6	0,001
897	0,001
897,4	0
897,8	0
898,3	0
898,7	0
899,1	-0
899,5	0
900	-0
900,4	-0
900,8	-0
901,2	-0
901,7	-0,001
902,1	-0,001
902,5	-0,001
902,9	-0,001
903,4	-0,001
903,8	-0,001
904,2	-0,001
904,6	-0,001
905,1	-0
905,5	-0
905,9	0
906,3	0,001
906,8	0,001
907,2	0,001
907,6	0,001
908	0,001
908,5	0,001
908,9	0,001
909,3	0,001
909,7	0,001
910,2	0,001
910,6	0,001
911	0,001
911,4	0,001
911,9	0,001
912,3	0,001
912,7	0,001
913,1	0,002
913,6	0,001
914	0,001
914,4	0,001
914,8	0,002
915,3	0,002
915,7	0,001
916,1	0,001
916,5	0,001
916,9	0,001
917,4	0,001
917,8	0,001
918,2	0,001
918,6	0,001
919,1	0,001
919,5	0,001
919,9	0,001
920,3	0,001
920,8	0,002
921,2	0,001
921,6	0,001
922	0,001
922,5	0,001
922,9	0,001
923,3	0,001
923,7	0,001
924,2	0,001
924,6	0,001
925	0,001
925,4	0,001
925,8	0,001
926,3	0,001
926,7	0,001
927,1	0,002
927,5	0,002
928	0,002
928,4	0,002
928,8	0,002
929,2	0,002
929,7	0,001
930,1	0,001
930,5	0,001
930,9	0,001
931,3	0,001
931,8	0
932,2	0
932,6	0
933	0,001
933,5	0,001
933,9	0,001
934,3	0,001
934,7	0,001
935,2	0,001
935,6	0,001
936	0,001
936,4	0,001
936,8	0,001
937,3	0,001
937,7	0,001
938,1	0,001
938,5	0,001
939	0,001
939,4	0,001
939,8	0,001
940,2	0,001
940,6	0,001
941,1	0,002
941,5	0,003
941,9	0,003
942,3	0,004
942,8	0,003
943,2	0,003
943,6	0,003
944	0,003
944,4	0,003
944,9	0,003
945,3	0,002
945,7	0,003
946,1	0,003
946,6	0,003
947	0,003
947,4	0,003
947,8	0,003
948,2	0,004
948,7	0,003
949,1	0,003
949,5	0,003
949,9	0,003
950,3	0,003
950,8	0,003
951,2	0,004
951,6	0,004
952	0,004
952,5	0,005
952,9	0,005
953,3	0,005
953,7	0,005
954,1	0,005
954,6	0,004
955	0,005
955,4	0,005
955,8	0,005
956,2	0,005
956,7	0,004
957,1	0,005
957,5	0,005
957,9	0,004
958,3	0,004
958,8	0,004
959,2	0,003
959,6	0,003
960	0,004
960,5	0,004
960,9	0,004
961,3	0,004
961,7	0,004
962,1	0,005
962,6	0,005
963	0,005
963,4	0,005
963,8	0,005
964,2	0,004
964,7	0,004
965,1	0,003
965,5	0,003
965,9	0,003
966,3	0,004
966,8	0,004
967,2	0,004
967,6	0,005
968	0,005
968,4	0,005
968,9	0,005
969,3	0,005
969,7	0,005
970,1	0,005
970,5	0,005
971	0,005
971,4	0,005
971,8	0,005
972,2	0,005
972,6	0,005
973,1	0,005
973,5	0,005
973,9	0,005
974,3	0,005
974,7	0,004
975,2	0,004
975,6	0,004
976	0,004
976,4	0,005
976,8	0,005
977,3	0,004
977,7	0,004
978,1	0,004
978,5	0,003
978,9	0,003
979,4	0,002
979,8	0,002
980,2	0,003
980,6	0,003
981	0,003
981,5	0,003
981,9	0,004
982,3	0,004
982,7	0,004
983,1	0,004
983,6	0,004
984	0,004
984,4	0,004
984,8	0,004
985,2	0,003
985,6	0,003
986,1	0,003
986,5	0,003
986,9	0,003
987,3	0,003
987,7	0,003
988,2	0,003
988,6	0,003
989	0,003
989,4	0,002
989,8	0,002
990,3	0,002
990,7	0,002
991,1	0,002
991,5	0,002
991,9	0,002
992,3	0,003
992,8	0,002
993,2	0,002
993,6	0,002
994	0,001
994,4	0,001
994,9	0,001
995,3	0,001
995,7	0,001
996,1	0,001
996,5	0,001
996,9	0,001
997,4	0,001
997,8	0,001
998,2	0,001
998,6	0,001
999	0,001
999,5	-0
999,9	-0
1000,3	-0
1000,7	-0,001
1001,1	-0,001
1001,5	-0
1002	0,001
1002,4	0,001
1002,8	0,001
1003,2	0,001
1003,6	0,002
1004	0,001
1004,5	0,001
1004,9	0,001
1005,3	0,002
1005,7	0,001
1006,1	0,001
1006,6	0,002
1007	0,003
1007,4	0,003
1007,8	0,002
1008,2	0,001
1008,6	0,002
1009,1	0,001
1009,5	0,001
1009,9	0
1010,3	0,001
1010,7	0
1011,1	0,001
1011,6	0,001
1012	0,001
1012,4	0,001
1012,8	0,001
1013,2	0,001
1013,6	0,002
1014,1	0,001
1014,5	0,001
1014,9	0,001
1015,3	0,001
1015,7	0,001
1016,1	0,001
1016,6	0
1017	0,001
1017,4	0
1017,8	0
1018,2	-0
1018,6	-0,001
1019,1	-0,001
1019,5	-0,001
1019,9	-0,001
1020,3	-0,001
1020,7	-0,001
1021,1	0
1021,6	0
1022	0,001
1022,4	0,001
1022,8	0,001
1023,2	0
1023,6	0
1024,1	0,001
1024,5	0,001
1024,9	0,001
1025,3	0,001
1025,7	0,001
1026,1	0,001
1026,6	0,001
1027	0
1027,4	0
1027,8	0
1028,2	0,001
1028,6	0,001
1029	0,001
1029,5	0,001
1029,9	0,002
1030,3	0,001
1030,7	0,001
1031,1	0,001
1031,5	0
1032	0,001
1032,4	0,001
1032,8	0
1033,2	0,001
1033,6	0,001
1034	0
1034,4	0,001
1034,9	0
1035,3	0
1035,7	0,001
1036,1	0,001
1036,5	0,001
1036,9	0,002
1037,4	0,002
1037,8	0,003
1038,2	0,003
1038,6	0,003
1039	0,003
1039,4	0,003
1039,8	0,004
1040,3	0,003
1040,7	0,003
1041,1	0,003
1041,5	0,003
1041,9	0,003
1042,3	0,003
1042,7	0,002
1043,2	0,003
1043,6	0,003
1044	0,003
1044,4	0,003
1044,8	0,002
1045,2	0,003
1045,6	0,004
1046,1	0,003
1046,5	0,004
1046,9	0,004
1047,3	0,003
1047,7	0,003
1048,1	0,002
1048,5	0,003
1049	0,003
1049,4	0,003
1049,8	0,003
1050,2	0,003
1050,6	0,003
1051	0,003
1051,4	0,002
1051,9	0,003
1052,3	0,003
1052,7	0,003
1053,1	0,003
1053,5	0,004
1053,9	0,004
1054,3	0,004
1054,8	0,002
1055,2	0,002
1055,6	0,003
1056	0,002
1056,4	0,002
1056,8	0,002
1057,2	0,003
1057,6	0,003
1058,1	0,004
1058,5	0,003
1058,9	0,003
1059,3	0,004
1059,7	0,004
1060,1	0,003
1060,5	0,004
1061	0,003
1061,4	0,004
1061,8	0,004
1062,2	0,003
1062,6	0,003
1063	0,003
1063,4	0,003
1063,8	0,004
1064,3	0,003
1064,7	0,003
1065,1	0,004
1065,5	0,004
1065,9	0,004
1066,3	0,005
1066,7	0,004
1067,1	0,004
1067,6	0,005
1068	0,005
1068,4	0,005
1068,8	0,003
1069,2	0,002
1069,6	0,002
1070	0,002
1070,4	0,001
1070,9	0,002
1071,3	0,001
1071,7	0,002
1072,1	0,002
1072,5	0,002
1072,9	0,002
1073,3	0,002
1073,7	0,002
1074,2	0,003
1074,6	0,003
1075	0,004
1075,4	0,004
1075,8	0,005
1076,2	0,004
1076,6	0,003
1077	0,003
1077,5	0,003
1077,9	0,003
1078,3	0,003
1078,7	0,004
1079,1	0,004
1079,5	0,006
1079,9	0,005
1080,3	0,005
1080,7	0,004
1081,2	0,004
1081,6	0,003
1082	0,004
1082,4	0,002
1082,8	0,003
1083,2	0,005
1083,6	0,005
1084	0,005
1084,5	0,004
1084,9	0,004
1085,3	0,005
1085,7	0,005
1086,1	0,002
1086,5	0,004
1086,9	0,004
1087,3	0,006
1087,7	0,006
1088,2	0,003
1088,6	0,003
1089	0,003
1089,4	0,003
1089,8	0,001
1090,2	-0
1090,6	0,001
1091	0,004
1091,4	0,004
1091,9	0,004
1092,3	0,006
1092,7	0,004
1093,1	0,005
1093,5	0,005
1093,9	0,004
1094,3	0,002
1094,7	0,003
1095,1	0,003
1095,5	0,006
1096	0
1096,4	0,005
1096,8	0,003
1097,2	0,008
1097,6	0,002
1098	0,002
1098,4	0,008
1098,8	0,014
1099,2	0,009
1099,6	0,012
1100,1	0,012
1100,5	0,018
1100,9	0,018
1101,3	0,018
1101,7	0,016
1102,1	0,012
1102,5	0,005
1102,9	0,01
1103,3	0,011
1103,7	0,019
1104,2	0,016
1104,6	0,011
1105	0,02
1105,4	0,031
1105,8	0,03
1106,2	0,027
1106,6	0,023
1107	0,019
1107,4	0,035
1107,8	0,004
1108,3	0,477
