Data from Absorbance_026.txt Node
Date: Fri Nov 13 13:01:42 MSK 2020
User: vat
Spectrometer: MAYP114033
Trigger mode: 0
Integration Time (sec): 8,000000E-3
Scans to average: 10
Electric dark correction enabled: true
Nonlinearity correction enabled: false
Boxcar width: 3
XAxis mode: Wavelengths
Number of Pixels in Spectrum: 2068
>>>>>Begin Spectral Data<<<<<
199,4	-0
199,9	0,079
200,4	0,053
200,8	0,04
201,3	0,002
201,8	0,037
202,2	0,031
202,7	0,031
203,2	0,053
203,6	0,064
204,1	0,066
204,6	0,054
205	0,044
205,5	0,043
206	0,034
206,4	0,012
206,9	-0,002
207,4	-0,009
207,8	0,016
208,3	0,029
208,8	0,043
209,2	0,063
209,7	0,063
210,2	0,073
210,6	0,078
211,1	0,064
211,5	0,056
212	0,051
212,5	0,032
212,9	0,038
213,4	0,039
213,9	0,037
214,3	0,046
214,8	0,039
215,3	0,036
215,7	0,041
216,2	0,044
216,7	0,044
217,1	0,05
217,6	0,049
218,1	0,084
218,5	0,09
219	0,094
219,5	0,096
219,9	0,074
220,4	0,085
220,9	0,079
221,3	0,056
221,8	0,045
222,3	0,051
222,7	0,053
223,2	0,093
223,6	0,091
224,1	0,098
224,6	0,105
225	0,122
225,5	0,104
226	0,107
226,4	0,098
226,9	0,083
227,4	0,085
227,8	0,08
228,3	0,07
228,8	0,083
229,2	0,079
229,7	0,062
230,2	0,07
230,6	0,074
231,1	0,089
231,5	0,098
232	0,107
232,5	0,107
232,9	0,112
233,4	0,11
233,9	0,11
234,3	0,108
234,8	0,113
235,3	0,111
235,7	0,117
236,2	0,132
236,7	0,135
237,1	0,137
237,6	0,131
238,1	0,131
238,5	0,144
239	0,137
239,4	0,128
239,9	0,143
240,4	0,155
240,8	0,179
241,3	0,186
241,8	0,175
242,2	0,192
242,7	0,207
243,2	0,208
243,6	0,217
244,1	0,213
244,6	0,21
245	0,22
245,5	0,221
245,9	0,223
246,4	0,239
246,9	0,247
247,3	0,262
247,8	0,277
248,3	0,304
248,7	0,33
249,2	0,355
249,7	0,362
250,1	0,37
250,6	0,383
251	0,394
251,5	0,397
252	0,406
252,4	0,413
252,9	0,426
253,4	0,443
253,8	0,452
254,3	0,464
254,8	0,48
255,2	0,494
255,7	0,509
256,1	0,523
256,6	0,533
257,1	0,547
257,5	0,563
258	0,578
258,5	0,593
258,9	0,609
259,4	0,626
259,9	0,645
260,3	0,664
260,8	0,682
261,2	0,699
261,7	0,718
262,2	0,738
262,6	0,758
263,1	0,777
263,6	0,795
264	0,816
264,5	0,838
264,9	0,859
265,4	0,879
265,9	0,899
266,3	0,921
266,8	0,944
267,3	0,966
267,7	0,989
268,2	1,01
268,7	1,031
269,1	1,051
269,6	1,073
270	1,094
270,5	1,114
271	1,135
271,4	1,155
271,9	1,175
272,4	1,197
272,8	1,214
273,3	1,232
273,7	1,249
274,2	1,264
274,7	1,281
275,1	1,302
275,6	1,319
276,1	1,335
276,5	1,35
277	1,364
277,4	1,38
277,9	1,389
278,4	1,397
278,8	1,41
279,3	1,418
279,8	1,427
280,2	1,434
280,7	1,439
281,1	1,443
281,6	1,447
282,1	1,446
282,5	1,447
283	1,446
283,4	1,447
283,9	1,443
284,4	1,442
284,8	1,436
285,3	1,432
285,8	1,424
286,2	1,416
286,7	1,407
287,1	1,399
287,6	1,387
288,1	1,373
288,5	1,357
289	1,341
289,5	1,324
289,9	1,302
290,4	1,283
290,8	1,261
291,3	1,24
291,8	1,216
292,2	1,192
292,7	1,167
293,1	1,141
293,6	1,113
294,1	1,086
294,5	1,059
295	1,033
295,5	1,006
295,9	0,978
296,4	0,951
296,8	0,922
297,3	0,892
297,8	0,861
298,2	0,83
298,7	0,8
299,1	0,769
299,6	0,739
300,1	0,71
300,5	0,681
301	0,654
301,5	0,626
301,9	0,599
302,4	0,572
302,8	0,547
303,3	0,522
303,8	0,498
304,2	0,475
304,7	0,452
305,1	0,431
305,6	0,41
306,1	0,39
306,5	0,371
307	0,352
307,4	0,334
307,9	0,317
308,4	0,301
308,8	0,285
309,3	0,27
309,8	0,256
310,2	0,243
310,7	0,231
311,1	0,219
311,6	0,207
312,1	0,196
312,5	0,187
313	0,177
313,4	0,168
313,9	0,16
314,4	0,152
314,8	0,145
315,3	0,138
315,7	0,131
316,2	0,125
316,7	0,119
317,1	0,114
317,6	0,109
318	0,104
318,5	0,099
319	0,095
319,4	0,092
319,9	0,088
320,3	0,084
320,8	0,081
321,3	0,078
321,7	0,075
322,2	0,073
322,6	0,071
323,1	0,068
323,6	0,067
324	0,065
324,5	0,063
324,9	0,061
325,4	0,059
325,9	0,058
326,3	0,056
326,8	0,055
327,2	0,053
327,7	0,052
328,2	0,051
328,6	0,05
329,1	0,049
329,5	0,048
330	0,047
330,5	0,046
330,9	0,045
331,4	0,044
331,8	0,042
332,3	0,042
332,8	0,041
333,2	0,04
333,7	0,04
334,1	0,039
334,6	0,039
335,1	0,038
335,5	0,038
336	0,037
336,4	0,036
336,9	0,035
337,4	0,035
337,8	0,034
338,3	0,033
338,7	0,033
339,2	0,032
339,7	0,031
340,1	0,031
340,6	0,031
341	0,03
341,5	0,03
342	0,029
342,4	0,029
342,9	0,029
343,3	0,028
343,8	0,028
344,2	0,028
344,7	0,028
345,2	0,027
345,6	0,027
346,1	0,027
346,5	0,026
347	0,026
347,5	0,026
347,9	0,025
348,4	0,025
348,8	0,025
349,3	0,024
349,8	0,024
350,2	0,023
350,7	0,023
351,1	0,023
351,6	0,023
352	0,022
352,5	0,021
353	0,021
353,4	0,021
353,9	0,021
354,3	0,021
354,8	0,02
355,3	0,02
355,7	0,02
356,2	0,02
356,6	0,019
357,1	0,018
357,5	0,018
358	0,018
358,5	0,018
358,9	0,018
359,4	0,017
359,8	0,017
360,3	0,017
360,8	0,016
361,2	0,015
361,7	0,015
362,1	0,015
362,6	0,015
363	0,014
363,5	0,014
364	0,014
364,4	0,014
364,9	0,013
365,3	0,013
365,8	0,013
366,3	0,013
366,7	0,012
367,2	0,012
367,6	0,012
368,1	0,012
368,5	0,012
369	0,012
369,5	0,011
369,9	0,011
370,4	0,011
370,8	0,011
371,3	0,011
371,7	0,011
372,2	0,011
372,7	0,011
373,1	0,01
373,6	0,01
374	0,009
374,5	0,009
374,9	0,009
375,4	0,008
375,9	0,008
376,3	0,007
376,8	0,007
377,2	0,008
377,7	0,007
378,2	0,007
378,6	0,007
379,1	0,007
379,5	0,007
380	0,007
380,4	0,006
380,9	0,006
381,4	0,005
381,8	0,004
382,3	0,004
382,7	0,004
383,2	0,004
383,6	0,004
384,1	0,004
384,6	0,004
385	0,004
385,5	0,004
385,9	0,004
386,4	0,004
386,8	0,003
387,3	0,003
387,7	0,003
388,2	0,003
388,7	0,002
389,1	0,002
389,6	0,002
390	0,002
390,5	0,003
390,9	0,002
391,4	0,002
391,9	0,002
392,3	0,002
392,8	0,002
393,2	0,001
393,7	0,001
394,1	0,001
394,6	0,001
395,1	0
395,5	0
396	-0
396,4	-0
396,9	-0
397,3	0
397,8	-0
398,2	-0
398,7	-0,001
399,2	-0,001
399,6	-0,001
400,1	-0,001
400,5	-0,001
401	-0,001
401,4	-0,001
401,9	-0,001
402,4	-0,001
402,8	-0,001
403,3	-0,002
403,7	-0,002
404,2	-0,002
404,6	-0,002
405,1	-0,002
405,5	-0,002
406	-0,003
406,5	-0,003
406,9	-0,003
407,4	-0,003
407,8	-0,003
408,3	-0,004
408,7	-0,004
409,2	-0,004
409,6	-0,004
410,1	-0,004
410,6	-0,004
411	-0,004
411,5	-0,004
411,9	-0,004
412,4	-0,004
412,8	-0,004
413,3	-0,004
413,7	-0,004
414,2	-0,004
414,7	-0,004
415,1	-0,004
415,6	-0,004
416	-0,004
416,5	-0,004
416,9	-0,004
417,4	-0,004
417,8	-0,004
418,3	-0,005
418,8	-0,005
419,2	-0,006
419,7	-0,006
420,1	-0,006
420,6	-0,007
421	-0,007
421,5	-0,006
421,9	-0,006
422,4	-0,006
422,8	-0,006
423,3	-0,006
423,8	-0,006
424,2	-0,006
424,7	-0,006
425,1	-0,006
425,6	-0,006
426	-0,007
426,5	-0,007
426,9	-0,007
427,4	-0,007
427,9	-0,007
428,3	-0,006
428,8	-0,007
429,2	-0,007
429,7	-0,006
430,1	-0,007
430,6	-0,007
431	-0,008
431,5	-0,009
431,9	-0,009
432,4	-0,008
432,8	-0,009
433,3	-0,009
433,8	-0,009
434,2	-0,008
434,7	-0,008
435,1	-0,008
435,6	-0,008
436	-0,008
436,5	-0,008
436,9	-0,008
437,4	-0,008
437,8	-0,008
438,3	-0,008
438,8	-0,008
439,2	-0,009
439,7	-0,009
440,1	-0,009
440,6	-0,01
441	-0,01
441,5	-0,01
441,9	-0,01
442,4	-0,01
442,8	-0,01
443,3	-0,01
443,7	-0,01
444,2	-0,009
444,7	-0,009
445,1	-0,009
445,6	-0,009
446	-0,009
446,5	-0,009
446,9	-0,009
447,4	-0,01
447,8	-0,01
448,3	-0,011
448,7	-0,01
449,2	-0,01
449,6	-0,01
450,1	-0,011
450,6	-0,011
451	-0,011
451,5	-0,01
451,9	-0,011
452,4	-0,011
452,8	-0,011
453,3	-0,011
453,7	-0,011
454,2	-0,011
454,6	-0,012
455,1	-0,011
455,5	-0,012
456	-0,011
456,4	-0,012
456,9	-0,012
457,3	-0,012
457,8	-0,012
458,3	-0,011
458,7	-0,011
459,2	-0,011
459,6	-0,011
460,1	-0,011
460,5	-0,011
461	-0,011
461,4	-0,012
461,9	-0,012
462,3	-0,012
462,8	-0,012
463,2	-0,012
463,7	-0,012
464,1	-0,012
464,6	-0,012
465	-0,012
465,5	-0,012
466	-0,012
466,4	-0,012
466,9	-0,013
467,3	-0,013
467,8	-0,013
468,2	-0,013
468,7	-0,014
469,1	-0,014
469,6	-0,014
470	-0,014
470,5	-0,014
470,9	-0,013
471,4	-0,013
471,8	-0,013
472,3	-0,012
472,7	-0,012
473,2	-0,012
473,6	-0,012
474,1	-0,012
474,5	-0,013
475	-0,013
475,4	-0,013
475,9	-0,013
476,4	-0,013
476,8	-0,013
477,3	-0,013
477,7	-0,013
478,2	-0,013
478,6	-0,013
479,1	-0,013
479,5	-0,013
480	-0,013
480,4	-0,014
480,9	-0,014
481,3	-0,014
481,8	-0,014
482,2	-0,014
482,7	-0,014
483,1	-0,014
483,6	-0,014
484	-0,014
484,5	-0,015
484,9	-0,015
485,4	-0,015
485,8	-0,015
486,3	-0,015
486,7	-0,015
487,2	-0,015
487,6	-0,014
488,1	-0,013
488,5	-0,013
489	-0,013
489,4	-0,013
489,9	-0,013
490,4	-0,013
490,8	-0,014
491,3	-0,014
491,7	-0,015
492,2	-0,015
492,6	-0,015
493,1	-0,015
493,5	-0,016
494	-0,015
494,4	-0,015
494,9	-0,015
495,3	-0,015
495,8	-0,015
496,2	-0,015
496,7	-0,015
497,1	-0,015
497,6	-0,016
498	-0,015
498,5	-0,015
498,9	-0,015
499,4	-0,015
499,8	-0,015
500,3	-0,015
500,7	-0,015
501,2	-0,015
501,6	-0,015
502,1	-0,016
502,5	-0,016
503	-0,016
503,4	-0,015
503,9	-0,016
504,3	-0,017
504,8	-0,016
505,2	-0,016
505,7	-0,016
506,1	-0,017
506,6	-0,017
507	-0,016
507,5	-0,016
507,9	-0,016
508,4	-0,016
508,8	-0,016
509,3	-0,016
509,7	-0,016
510,2	-0,016
510,6	-0,016
511,1	-0,016
511,5	-0,016
512	-0,016
512,4	-0,016
512,9	-0,016
513,3	-0,016
513,8	-0,016
514,2	-0,017
514,7	-0,017
515,1	-0,017
515,6	-0,017
516	-0,017
516,5	-0,017
516,9	-0,017
517,4	-0,017
517,8	-0,017
518,3	-0,017
518,7	-0,017
519,2	-0,017
519,6	-0,017
520,1	-0,017
520,5	-0,018
521	-0,017
521,4	-0,017
521,9	-0,018
522,3	-0,017
522,8	-0,017
523,2	-0,016
523,7	-0,016
524,1	-0,017
524,6	-0,017
525	-0,017
525,5	-0,017
525,9	-0,018
526,4	-0,018
526,8	-0,018
527,3	-0,018
527,7	-0,018
528,2	-0,019
528,6	-0,018
529,1	-0,018
529,5	-0,018
530	-0,018
530,4	-0,019
530,9	-0,019
531,3	-0,019
531,8	-0,019
532,2	-0,019
532,6	-0,019
533,1	-0,018
533,5	-0,018
534	-0,018
534,4	-0,018
534,9	-0,019
535,3	-0,019
535,8	-0,019
536,2	-0,019
536,7	-0,019
537,1	-0,019
537,6	-0,018
538	-0,018
538,5	-0,018
538,9	-0,018
539,4	-0,018
539,8	-0,018
540,3	-0,018
540,7	-0,018
541,2	-0,018
541,6	-0,018
542,1	-0,019
542,5	-0,019
543	-0,019
543,4	-0,019
543,9	-0,019
544,3	-0,019
544,8	-0,018
545,2	-0,018
545,7	-0,018
546,1	-0,018
546,5	-0,019
547	-0,018
547,4	-0,018
547,9	-0,019
548,3	-0,019
548,8	-0,019
549,2	-0,019
549,7	-0,019
550,1	-0,019
550,6	-0,02
551	-0,019
551,5	-0,019
551,9	-0,019
552,4	-0,019
552,8	-0,019
553,3	-0,019
553,7	-0,019
554,2	-0,019
554,6	-0,019
555,1	-0,019
555,5	-0,019
555,9	-0,019
556,4	-0,019
556,8	-0,018
557,3	-0,018
557,7	-0,018
558,2	-0,019
558,6	-0,019
559,1	-0,019
559,5	-0,019
560	-0,019
560,4	-0,019
560,9	-0,019
561,3	-0,019
561,8	-0,019
562,2	-0,02
562,7	-0,02
563,1	-0,02
563,6	-0,02
564	-0,02
564,4	-0,02
564,9	-0,02
565,3	-0,02
565,8	-0,02
566,2	-0,02
566,7	-0,02
567,1	-0,02
567,6	-0,02
568	-0,02
568,5	-0,02
568,9	-0,02
569,4	-0,02
569,8	-0,02
570,3	-0,02
570,7	-0,02
571,1	-0,02
571,6	-0,02
572	-0,02
572,5	-0,021
572,9	-0,021
573,4	-0,021
573,8	-0,021
574,3	-0,021
574,7	-0,021
575,2	-0,021
575,6	-0,021
576,1	-0,021
576,5	-0,021
576,9	-0,021
577,4	-0,021
577,8	-0,021
578,3	-0,021
578,7	-0,021
579,2	-0,021
579,6	-0,02
580,1	-0,021
580,5	-0,021
581	-0,021
581,4	-0,021
581,9	-0,02
582,3	-0,02
582,7	-0,02
583,2	-0,02
583,6	-0,02
584,1	-0,019
584,5	-0,02
585	-0,02
585,4	-0,02
585,9	-0,02
586,3	-0,021
586,8	-0,02
587,2	-0,02
587,6	-0,02
588,1	-0,02
588,5	-0,02
589	-0,021
589,4	-0,021
589,9	-0,021
590,3	-0,021
590,8	-0,021
591,2	-0,021
591,7	-0,022
592,1	-0,021
592,5	-0,021
593	-0,021
593,4	-0,021
593,9	-0,021
594,3	-0,021
594,8	-0,021
595,2	-0,021
595,7	-0,021
596,1	-0,021
596,6	-0,021
597	-0,021
597,4	-0,022
597,9	-0,022
598,3	-0,022
598,8	-0,022
599,2	-0,022
599,7	-0,021
600,1	-0,021
600,6	-0,021
601	-0,021
601,4	-0,021
601,9	-0,021
602,3	-0,021
602,8	-0,021
603,2	-0,021
603,7	-0,021
604,1	-0,021
604,6	-0,021
605	-0,021
605,4	-0,021
605,9	-0,021
606,3	-0,021
606,8	-0,021
607,2	-0,021
607,7	-0,021
608,1	-0,022
608,6	-0,022
609	-0,022
609,4	-0,022
609,9	-0,022
610,3	-0,022
610,8	-0,022
611,2	-0,023
611,7	-0,022
612,1	-0,022
612,6	-0,023
613	-0,023
613,4	-0,023
613,9	-0,023
614,3	-0,023
614,8	-0,023
615,2	-0,023
615,7	-0,023
616,1	-0,022
616,6	-0,022
617	-0,022
617,4	-0,022
617,9	-0,022
618,3	-0,022
618,8	-0,022
619,2	-0,022
619,7	-0,022
620,1	-0,022
620,5	-0,022
621	-0,022
621,4	-0,022
621,9	-0,022
622,3	-0,022
622,8	-0,022
623,2	-0,023
623,6	-0,023
624,1	-0,022
624,5	-0,022
625	-0,022
625,4	-0,022
625,9	-0,022
626,3	-0,022
626,8	-0,022
627,2	-0,022
627,6	-0,022
628,1	-0,022
628,5	-0,022
629	-0,022
629,4	-0,022
629,9	-0,022
630,3	-0,022
630,7	-0,022
631,2	-0,022
631,6	-0,022
632,1	-0,022
632,5	-0,022
633	-0,022
633,4	-0,022
633,8	-0,022
634,3	-0,022
634,7	-0,022
635,2	-0,022
635,6	-0,022
636,1	-0,022
636,5	-0,022
636,9	-0,022
637,4	-0,022
637,8	-0,022
638,3	-0,022
638,7	-0,023
639,2	-0,022
639,6	-0,022
640	-0,022
640,5	-0,022
640,9	-0,023
641,4	-0,023
641,8	-0,023
642,2	-0,024
642,7	-0,024
643,1	-0,024
643,6	-0,024
644	-0,024
644,5	-0,024
644,9	-0,023
645,3	-0,022
645,8	-0,022
646,2	-0,022
646,7	-0,022
647,1	-0,022
647,6	-0,022
648	-0,022
648,4	-0,023
648,9	-0,023
649,3	-0,023
649,8	-0,023
650,2	-0,023
650,6	-0,023
651,1	-0,024
651,5	-0,024
652	-0,024
652,4	-0,023
652,9	-0,023
653,3	-0,022
653,7	-0,02
654,2	-0,013
654,6	-0,009
655,1	-0,006
655,5	-0,006
655,9	-0,006
656,4	-0,006
656,8	-0,004
657,3	-0,006
657,7	-0,009
658,2	-0,015
658,6	-0,017
659	-0,019
659,5	-0,02
659,9	-0,021
660,4	-0,021
660,8	-0,022
661,2	-0,022
661,7	-0,023
662,1	-0,022
662,6	-0,022
663	-0,022
663,4	-0,022
663,9	-0,022
664,3	-0,022
664,8	-0,022
665,2	-0,022
665,6	-0,022
666,1	-0,022
666,5	-0,022
667	-0,022
667,4	-0,022
667,9	-0,022
668,3	-0,022
668,7	-0,022
669,2	-0,023
669,6	-0,023
670,1	-0,023
670,5	-0,023
670,9	-0,023
671,4	-0,023
671,8	-0,023
672,3	-0,023
672,7	-0,023
673,1	-0,023
673,6	-0,023
674	-0,023
674,5	-0,023
674,9	-0,022
675,3	-0,022
675,8	-0,022
676,2	-0,022
676,7	-0,022
677,1	-0,023
677,5	-0,023
678	-0,023
678,4	-0,023
678,9	-0,023
679,3	-0,023
679,7	-0,023
680,2	-0,023
680,6	-0,022
681,1	-0,022
681,5	-0,022
681,9	-0,022
682,4	-0,023
682,8	-0,023
683,3	-0,023
683,7	-0,023
684,1	-0,024
684,6	-0,023
685	-0,023
685,5	-0,023
685,9	-0,023
686,3	-0,023
686,8	-0,023
687,2	-0,023
687,7	-0,023
688,1	-0,023
688,5	-0,023
689	-0,023
689,4	-0,023
689,9	-0,024
690,3	-0,024
690,7	-0,024
691,2	-0,023
691,6	-0,024
692	-0,024
692,5	-0,023
692,9	-0,023
693,4	-0,023
693,8	-0,023
694,2	-0,023
694,7	-0,023
695,1	-0,022
695,6	-0,023
696	-0,023
696,4	-0,023
696,9	-0,023
697,3	-0,023
697,8	-0,023
698,2	-0,023
698,6	-0,023
699,1	-0,023
699,5	-0,023
699,9	-0,023
700,4	-0,022
700,8	-0,023
701,3	-0,023
701,7	-0,022
702,1	-0,022
702,6	-0,023
703	-0,023
703,5	-0,023
703,9	-0,023
704,3	-0,023
704,8	-0,023
705,2	-0,023
705,6	-0,023
706,1	-0,023
706,5	-0,023
707	-0,023
707,4	-0,023
707,8	-0,023
708,3	-0,023
708,7	-0,024
709,2	-0,024
709,6	-0,024
710	-0,024
710,5	-0,024
710,9	-0,024
711,3	-0,024
711,8	-0,023
712,2	-0,023
712,7	-0,023
713,1	-0,023
713,5	-0,023
714	-0,023
714,4	-0,023
714,8	-0,023
715,3	-0,023
715,7	-0,023
716,2	-0,023
716,6	-0,023
717	-0,023
717,5	-0,023
717,9	-0,023
718,3	-0,023
718,8	-0,023
719,2	-0,024
719,7	-0,024
720,1	-0,024
720,5	-0,024
721	-0,024
721,4	-0,024
721,8	-0,024
722,3	-0,024
722,7	-0,024
723,2	-0,023
723,6	-0,023
724	-0,023
724,5	-0,023
724,9	-0,022
725,3	-0,022
725,8	-0,022
726,2	-0,022
726,7	-0,023
727,1	-0,023
727,5	-0,023
728	-0,023
728,4	-0,024
728,8	-0,024
729,3	-0,024
729,7	-0,024
730,1	-0,024
730,6	-0,024
731	-0,024
731,5	-0,024
731,9	-0,024
732,3	-0,024
732,8	-0,024
733,2	-0,024
733,6	-0,024
734,1	-0,024
734,5	-0,024
734,9	-0,024
735,4	-0,023
735,8	-0,023
736,3	-0,023
736,7	-0,023
737,1	-0,023
737,6	-0,022
738	-0,022
738,4	-0,023
738,9	-0,022
739,3	-0,022
739,7	-0,022
740,2	-0,022
740,6	-0,022
741,1	-0,022
741,5	-0,022
741,9	-0,022
742,4	-0,022
742,8	-0,022
743,2	-0,023
743,7	-0,023
744,1	-0,023
744,5	-0,023
745	-0,023
745,4	-0,023
745,8	-0,023
746,3	-0,023
746,7	-0,023
747,2	-0,023
747,6	-0,023
748	-0,023
748,5	-0,023
748,9	-0,024
749,3	-0,024
749,8	-0,024
750,2	-0,024
750,6	-0,024
751,1	-0,023
751,5	-0,023
751,9	-0,024
752,4	-0,024
752,8	-0,024
753,3	-0,024
753,7	-0,024
754,1	-0,024
754,6	-0,024
755	-0,024
755,4	-0,024
755,9	-0,024
756,3	-0,024
756,7	-0,024
757,2	-0,024
757,6	-0,024
758	-0,024
758,5	-0,023
758,9	-0,023
759,3	-0,023
759,8	-0,023
760,2	-0,023
760,6	-0,023
761,1	-0,023
761,5	-0,023
761,9	-0,024
762,4	-0,024
762,8	-0,024
763,3	-0,024
763,7	-0,024
764,1	-0,024
764,6	-0,024
765	-0,024
765,4	-0,023
765,9	-0,023
766,3	-0,023
766,7	-0,022
767,2	-0,022
767,6	-0,022
768	-0,023
768,5	-0,023
768,9	-0,023
769,3	-0,023
769,8	-0,023
770,2	-0,023
770,6	-0,023
771,1	-0,023
771,5	-0,023
771,9	-0,022
772,4	-0,022
772,8	-0,022
773,2	-0,022
773,7	-0,023
774,1	-0,023
774,5	-0,023
775	-0,023
775,4	-0,023
775,8	-0,023
776,3	-0,024
776,7	-0,023
777,1	-0,023
777,6	-0,023
778	-0,023
778,4	-0,023
778,9	-0,023
779,3	-0,023
779,7	-0,023
780,2	-0,023
780,6	-0,023
781	-0,023
781,5	-0,023
781,9	-0,023
782,3	-0,023
782,8	-0,023
783,2	-0,023
783,6	-0,023
784,1	-0,023
784,5	-0,023
784,9	-0,023
785,4	-0,023
785,8	-0,023
786,2	-0,024
786,7	-0,024
787,1	-0,024
787,5	-0,024
788	-0,024
788,4	-0,024
788,8	-0,023
789,3	-0,023
789,7	-0,023
790,1	-0,023
790,6	-0,023
791	-0,023
791,4	-0,023
791,9	-0,023
792,3	-0,023
792,7	-0,024
793,2	-0,024
793,6	-0,023
794	-0,023
794,5	-0,023
794,9	-0,023
795,3	-0,023
795,8	-0,023
796,2	-0,023
796,6	-0,023
797,1	-0,023
797,5	-0,023
797,9	-0,023
798,4	-0,023
798,8	-0,023
799,2	-0,023
799,7	-0,023
800,1	-0,024
800,5	-0,024
801	-0,023
801,4	-0,023
801,8	-0,023
802,2	-0,023
802,7	-0,023
803,1	-0,023
803,5	-0,023
804	-0,023
804,4	-0,023
804,8	-0,023
805,3	-0,023
805,7	-0,023
806,1	-0,023
806,6	-0,023
807	-0,024
807,4	-0,023
807,9	-0,023
808,3	-0,024
808,7	-0,024
809,2	-0,024
809,6	-0,024
810	-0,024
810,4	-0,024
810,9	-0,024
811,3	-0,023
811,7	-0,023
812,2	-0,023
812,6	-0,022
813	-0,022
813,5	-0,022
813,9	-0,022
814,3	-0,022
814,8	-0,022
815,2	-0,022
815,6	-0,023
816,1	-0,023
816,5	-0,023
816,9	-0,023
817,3	-0,023
817,8	-0,023
818,2	-0,023
818,6	-0,023
819,1	-0,023
819,5	-0,023
819,9	-0,023
820,4	-0,023
820,8	-0,024
821,2	-0,024
821,7	-0,023
822,1	-0,024
822,5	-0,023
822,9	-0,024
823,4	-0,024
823,8	-0,023
824,2	-0,023
824,7	-0,023
825,1	-0,024
825,5	-0,024
826	-0,023
826,4	-0,023
826,8	-0,023
827,3	-0,023
827,7	-0,023
828,1	-0,022
828,5	-0,023
829	-0,023
829,4	-0,023
829,8	-0,023
830,3	-0,023
830,7	-0,023
831,1	-0,023
831,6	-0,023
832	-0,023
832,4	-0,023
832,8	-0,023
833,3	-0,023
833,7	-0,024
834,1	-0,024
834,6	-0,024
835	-0,024
835,4	-0,024
835,8	-0,024
836,3	-0,024
836,7	-0,024
837,1	-0,024
837,6	-0,024
838	-0,024
838,4	-0,024
838,9	-0,024
839,3	-0,024
839,7	-0,023
840,1	-0,023
840,6	-0,024
841	-0,024
841,4	-0,024
841,9	-0,024
842,3	-0,024
842,7	-0,024
843,1	-0,024
843,6	-0,024
844	-0,023
844,4	-0,023
844,9	-0,023
845,3	-0,023
845,7	-0,023
846,2	-0,023
846,6	-0,023
847	-0,023
847,4	-0,023
847,9	-0,023
848,3	-0,023
848,7	-0,023
849,2	-0,023
849,6	-0,024
850	-0,024
850,4	-0,024
850,9	-0,024
851,3	-0,024
851,7	-0,024
852,2	-0,024
852,6	-0,023
853	-0,023
853,4	-0,023
853,9	-0,023
854,3	-0,023
854,7	-0,023
855,2	-0,023
855,6	-0,024
856	-0,023
856,4	-0,024
856,9	-0,023
857,3	-0,023
857,7	-0,023
858,2	-0,023
858,6	-0,023
859	-0,023
859,4	-0,023
859,9	-0,023
860,3	-0,023
860,7	-0,023
861,1	-0,023
861,6	-0,023
862	-0,023
862,4	-0,023
862,9	-0,023
863,3	-0,023
863,7	-0,023
864,1	-0,023
864,6	-0,023
865	-0,023
865,4	-0,023
865,9	-0,023
866,3	-0,023
866,7	-0,023
867,1	-0,023
867,6	-0,023
868	-0,023
868,4	-0,022
868,8	-0,022
869,3	-0,022
869,7	-0,022
870,1	-0,022
870,6	-0,022
871	-0,022
871,4	-0,023
871,8	-0,023
872,3	-0,023
872,7	-0,023
873,1	-0,023
873,5	-0,024
874	-0,024
874,4	-0,024
874,8	-0,024
875,3	-0,024
875,7	-0,024
876,1	-0,024
876,5	-0,024
877	-0,024
877,4	-0,024
877,8	-0,024
878,2	-0,024
878,7	-0,024
879,1	-0,024
879,5	-0,023
879,9	-0,023
880,4	-0,023
880,8	-0,023
881,2	-0,023
881,7	-0,023
882,1	-0,023
882,5	-0,023
882,9	-0,023
883,4	-0,023
883,8	-0,023
884,2	-0,023
884,6	-0,023
885,1	-0,023
885,5	-0,023
885,9	-0,023
886,3	-0,023
886,8	-0,023
887,2	-0,024
887,6	-0,024
888	-0,024
888,5	-0,024
888,9	-0,024
889,3	-0,024
889,8	-0,024
890,2	-0,024
890,6	-0,024
891	-0,024
891,5	-0,024
891,9	-0,025
892,3	-0,025
892,7	-0,025
893,2	-0,025
893,6	-0,024
894	-0,025
894,4	-0,025
894,9	-0,025
895,3	-0,025
895,7	-0,025
896,1	-0,025
896,6	-0,025
897	-0,025
897,4	-0,024
897,8	-0,024
898,3	-0,024
898,7	-0,024
899,1	-0,024
899,5	-0,024
900	-0,024
900,4	-0,023
900,8	-0,024
901,2	-0,024
901,7	-0,024
902,1	-0,024
902,5	-0,024
902,9	-0,024
903,4	-0,024
903,8	-0,023
904,2	-0,023
904,6	-0,023
905,1	-0,023
905,5	-0,023
905,9	-0,023
906,3	-0,023
906,8	-0,023
907,2	-0,023
907,6	-0,023
908	-0,023
908,5	-0,024
908,9	-0,023
909,3	-0,023
909,7	-0,023
910,2	-0,024
910,6	-0,024
911	-0,024
911,4	-0,023
911,9	-0,023
912,3	-0,023
912,7	-0,023
913,1	-0,023
913,6	-0,023
914	-0,024
914,4	-0,024
914,8	-0,024
915,3	-0,024
915,7	-0,025
916,1	-0,025
916,5	-0,025
916,9	-0,025
917,4	-0,024
917,8	-0,024
918,2	-0,024
918,6	-0,023
919,1	-0,023
919,5	-0,023
919,9	-0,022
920,3	-0,023
920,8	-0,023
921,2	-0,024
921,6	-0,024
922	-0,024
922,5	-0,024
922,9	-0,025
923,3	-0,024
923,7	-0,024
924,2	-0,024
924,6	-0,024
925	-0,023
925,4	-0,024
925,8	-0,023
926,3	-0,023
926,7	-0,023
927,1	-0,023
927,5	-0,023
928	-0,022
928,4	-0,022
928,8	-0,022
929,2	-0,022
929,7	-0,022
930,1	-0,022
930,5	-0,022
930,9	-0,022
931,3	-0,023
931,8	-0,023
932,2	-0,023
932,6	-0,023
933	-0,023
933,5	-0,023
933,9	-0,023
934,3	-0,023
934,7	-0,022
935,2	-0,022
935,6	-0,022
936	-0,022
936,4	-0,021
936,8	-0,022
937,3	-0,022
937,7	-0,022
938,1	-0,022
938,5	-0,023
939	-0,023
939,4	-0,024
939,8	-0,023
940,2	-0,023
940,6	-0,023
941,1	-0,023
941,5	-0,023
941,9	-0,023
942,3	-0,023
942,8	-0,023
943,2	-0,024
943,6	-0,024
944	-0,024
944,4	-0,024
944,9	-0,024
945,3	-0,024
945,7	-0,024
946,1	-0,024
946,6	-0,024
947	-0,023
947,4	-0,023
947,8	-0,024
948,2	-0,024
948,7	-0,024
949,1	-0,025
949,5	-0,024
949,9	-0,024
950,3	-0,024
950,8	-0,023
951,2	-0,023
951,6	-0,023
952	-0,023
952,5	-0,023
952,9	-0,023
953,3	-0,024
953,7	-0,024
954,1	-0,024
954,6	-0,024
955	-0,023
955,4	-0,023
955,8	-0,024
956,2	-0,023
956,7	-0,023
957,1	-0,024
957,5	-0,024
957,9	-0,025
958,3	-0,024
958,8	-0,024
959,2	-0,024
959,6	-0,024
960	-0,024
960,5	-0,023
960,9	-0,023
961,3	-0,023
961,7	-0,023
962,1	-0,023
962,6	-0,023
963	-0,023
963,4	-0,023
963,8	-0,023
964,2	-0,023
964,7	-0,023
965,1	-0,023
965,5	-0,023
965,9	-0,022
966,3	-0,022
966,8	-0,022
967,2	-0,023
967,6	-0,024
968	-0,024
968,4	-0,024
968,9	-0,024
969,3	-0,024
969,7	-0,024
970,1	-0,024
970,5	-0,023
971	-0,023
971,4	-0,023
971,8	-0,024
972,2	-0,024
972,6	-0,023
973,1	-0,023
973,5	-0,024
973,9	-0,023
974,3	-0,023
974,7	-0,024
975,2	-0,023
975,6	-0,023
976	-0,023
976,4	-0,023
976,8	-0,024
977,3	-0,024
977,7	-0,024
978,1	-0,024
978,5	-0,024
978,9	-0,024
979,4	-0,024
979,8	-0,023
980,2	-0,023
980,6	-0,023
981	-0,023
981,5	-0,023
981,9	-0,023
982,3	-0,023
982,7	-0,023
983,1	-0,023
983,6	-0,023
984	-0,023
984,4	-0,023
984,8	-0,023
985,2	-0,023
985,6	-0,023
986,1	-0,023
986,5	-0,023
986,9	-0,023
987,3	-0,022
987,7	-0,022
988,2	-0,022
988,6	-0,022
989	-0,022
989,4	-0,022
989,8	-0,022
990,3	-0,023
990,7	-0,023
991,1	-0,024
991,5	-0,024
991,9	-0,024
992,3	-0,024
992,8	-0,024
993,2	-0,024
993,6	-0,024
994	-0,024
994,4	-0,023
994,9	-0,023
995,3	-0,023
995,7	-0,023
996,1	-0,023
996,5	-0,023
996,9	-0,022
997,4	-0,023
997,8	-0,022
998,2	-0,023
998,6	-0,023
999	-0,023
999,5	-0,023
999,9	-0,023
1000,3	-0,023
1000,7	-0,024
1001,1	-0,024
1001,5	-0,024
1002	-0,024
1002,4	-0,023
1002,8	-0,024
1003,2	-0,024
1003,6	-0,024
1004	-0,024
1004,5	-0,023
1004,9	-0,023
1005,3	-0,023
1005,7	-0,023
1006,1	-0,022
1006,6	-0,022
1007	-0,023
1007,4	-0,023
1007,8	-0,023
1008,2	-0,023
1008,6	-0,023
1009,1	-0,023
1009,5	-0,022
1009,9	-0,022
1010,3	-0,022
1010,7	-0,022
1011,1	-0,022
1011,6	-0,022
1012	-0,022
1012,4	-0,023
1012,8	-0,022
1013,2	-0,022
1013,6	-0,023
1014,1	-0,023
1014,5	-0,024
1014,9	-0,024
1015,3	-0,024
1015,7	-0,024
1016,1	-0,024
1016,6	-0,024
1017	-0,024
1017,4	-0,023
1017,8	-0,023
1018,2	-0,023
1018,6	-0,023
1019,1	-0,023
1019,5	-0,023
1019,9	-0,023
1020,3	-0,022
1020,7	-0,023
1021,1	-0,023
1021,6	-0,022
1022	-0,023
1022,4	-0,022
1022,8	-0,022
1023,2	-0,022
1023,6	-0,023
1024,1	-0,022
1024,5	-0,022
1024,9	-0,022
1025,3	-0,022
1025,7	-0,023
1026,1	-0,023
1026,6	-0,023
1027	-0,023
1027,4	-0,023
1027,8	-0,023
1028,2	-0,023
1028,6	-0,023
1029	-0,023
1029,5	-0,023
1029,9	-0,023
1030,3	-0,023
1030,7	-0,023
1031,1	-0,023
1031,5	-0,023
1032	-0,024
1032,4	-0,023
1032,8	-0,023
1033,2	-0,024
1033,6	-0,023
1034	-0,023
1034,4	-0,024
1034,9	-0,024
1035,3	-0,024
1035,7	-0,024
1036,1	-0,024
1036,5	-0,025
1036,9	-0,024
1037,4	-0,025
1037,8	-0,024
1038,2	-0,025
1038,6	-0,025
1039	-0,025
1039,4	-0,023
1039,8	-0,023
1040,3	-0,023
1040,7	-0,023
1041,1	-0,023
1041,5	-0,023
1041,9	-0,023
1042,3	-0,024
1042,7	-0,024
1043,2	-0,024
1043,6	-0,023
1044	-0,023
1044,4	-0,023
1044,8	-0,023
1045,2	-0,023
1045,6	-0,022
1046,1	-0,022
1046,5	-0,023
1046,9	-0,023
1047,3	-0,023
1047,7	-0,023
1048,1	-0,023
1048,5	-0,024
1049	-0,024
1049,4	-0,024
1049,8	-0,023
1050,2	-0,024
1050,6	-0,023
1051	-0,023
1051,4	-0,024
1051,9	-0,023
1052,3	-0,023
1052,7	-0,023
1053,1	-0,022
1053,5	-0,022
1053,9	-0,022
1054,3	-0,021
1054,8	-0,021
1055,2	-0,021
1055,6	-0,022
1056	-0,022
1056,4	-0,022
1056,8	-0,022
1057,2	-0,022
1057,6	-0,022
1058,1	-0,023
1058,5	-0,022
1058,9	-0,022
1059,3	-0,022
1059,7	-0,022
1060,1	-0,022
1060,5	-0,023
1061	-0,023
1061,4	-0,023
1061,8	-0,024
1062,2	-0,024
1062,6	-0,024
1063	-0,024
1063,4	-0,024
1063,8	-0,024
1064,3	-0,024
1064,7	-0,023
1065,1	-0,023
1065,5	-0,024
1065,9	-0,023
1066,3	-0,023
1066,7	-0,023
1067,1	-0,023
1067,6	-0,022
1068	-0,023
1068,4	-0,023
1068,8	-0,023
1069,2	-0,024
1069,6	-0,024
1070	-0,024
1070,4	-0,025
1070,9	-0,025
1071,3	-0,025
1071,7	-0,025
1072,1	-0,025
1072,5	-0,025
1072,9	-0,024
1073,3	-0,024
1073,7	-0,024
1074,2	-0,025
1074,6	-0,024
1075	-0,023
1075,4	-0,023
1075,8	-0,025
1076,2	-0,024
1076,6	-0,023
1077	-0,022
1077,5	-0,023
1077,9	-0,024
1078,3	-0,024
1078,7	-0,023
1079,1	-0,023
1079,5	-0,024
1079,9	-0,026
1080,3	-0,026
1080,7	-0,026
1081,2	-0,025
1081,6	-0,026
1082	-0,027
1082,4	-0,026
1082,8	-0,024
1083,2	-0,023
1083,6	-0,022
1084	-0,022
1084,5	-0,02
1084,9	-0,02
1085,3	-0,02
1085,7	-0,021
1086,1	-0,021
1086,5	-0,021
1086,9	-0,022
1087,3	-0,022
1087,7	-0,021
1088,2	-0,022
1088,6	-0,021
1089	-0,021
1089,4	-0,024
1089,8	-0,022
1090,2	-0,022
1090,6	-0,02
1091	-0,018
1091,4	-0,019
1091,9	-0,019
1092,3	-0,018
1092,7	-0,017
1093,1	-0,019
1093,5	-0,022
1093,9	-0,021
1094,3	-0,024
1094,7	-0,023
1095,1	-0,025
1095,5	-0,025
1096	-0,022
1096,4	-0,016
1096,8	-0,014
1097,2	-0,012
1097,6	-0,015
1098	-0,012
1098,4	-0,008
1098,8	-0,011
1099,2	-0,019
1099,6	-0,021
1100,1	-0,02
1100,5	-0,016
1100,9	-0,008
1101,3	-0,017
1101,7	-0,008
1102,1	-0,01
1102,5	-0,014
1102,9	-0,01
1103,3	-0,015
1103,7	-0,015
1104,2	-0,02
1104,6	-0,023
1105	-0,018
1105,4	-0,007
1105,8	-0,004
1106,2	0,006
1106,6	-0,016
1107	0,006
1107,4	-0,009
1107,8	0,004
1108,3	-0
