Data from Absorbance_104.txt Node
Date: Fri Nov 13 18:45:41 MSK 2020
User: vat
Spectrometer: MAYP114033
Trigger mode: 0
Integration Time (sec): 8,000000E-3
Scans to average: 10
Electric dark correction enabled: true
Nonlinearity correction enabled: false
Boxcar width: 3
XAxis mode: Wavelengths
Number of Pixels in Spectrum: 2068
>>>>>Begin Spectral Data<<<<<
199,4	-0
199,9	0,557
200,4	0,226
200,8	0,097
201,3	0,05
201,8	0,057
202,2	0,063
202,7	0,055
203,2	0,034
203,6	0,044
204,1	0,06
204,6	0,049
205	0,041
205,5	0,03
206	0,035
206,4	0,039
206,9	0,032
207,4	0,032
207,8	0,047
208,3	0,048
208,8	0,047
209,2	0,051
209,7	0,037
210,2	0,027
210,6	0,022
211,1	0,025
211,5	0,024
212	0,027
212,5	0,016
212,9	0,03
213,4	0,03
213,9	0,025
214,3	0,026
214,8	0,03
215,3	0,02
215,7	0,018
216,2	0,016
216,7	0,02
217,1	0,031
217,6	0,027
218,1	0,018
218,5	0,024
219	0,032
219,5	0,022
219,9	0,031
220,4	0,027
220,9	0,026
221,3	0,018
221,8	0,017
222,3	0,026
222,7	0,044
223,2	0,05
223,6	0,042
224,1	0,049
224,6	0,063
225	0,087
225,5	0,089
226	0,091
226,4	0,087
226,9	0,08
227,4	0,065
227,8	0,069
228,3	0,049
228,8	0,05
229,2	0,037
229,7	0,035
230,2	0,042
230,6	0,049
231,1	0,059
231,5	0,066
232	0,066
232,5	0,07
232,9	0,061
233,4	0,082
233,9	0,077
234,3	0,067
234,8	0,068
235,3	0,061
235,7	0,065
236,2	0,083
236,7	0,075
237,1	0,092
237,6	0,076
238,1	0,078
238,5	0,085
239	0,087
239,4	0,092
239,9	0,083
240,4	0,081
240,8	0,093
241,3	0,103
241,8	0,097
242,2	0,099
242,7	0,088
243,2	0,101
243,6	0,099
244,1	0,104
244,6	0,103
245	0,109
245,5	0,119
245,9	0,128
246,4	0,132
246,9	0,141
247,3	0,143
247,8	0,149
248,3	0,158
248,7	0,158
249,2	0,169
249,7	0,173
250,1	0,175
250,6	0,175
251	0,172
251,5	0,174
252	0,174
252,4	0,174
252,9	0,177
253,4	0,179
253,8	0,183
254,3	0,188
254,8	0,192
255,2	0,196
255,7	0,2
256,1	0,203
256,6	0,206
257,1	0,211
257,5	0,215
258	0,221
258,5	0,226
258,9	0,233
259,4	0,241
259,9	0,247
260,3	0,254
260,8	0,263
261,2	0,271
261,7	0,279
262,2	0,287
262,6	0,294
263,1	0,301
263,6	0,308
264	0,315
264,5	0,322
264,9	0,33
265,4	0,337
265,9	0,345
266,3	0,354
266,8	0,364
267,3	0,371
267,7	0,379
268,2	0,388
268,7	0,397
269,1	0,405
269,6	0,414
270	0,422
270,5	0,43
271	0,438
271,4	0,446
271,9	0,453
272,4	0,46
272,8	0,467
273,3	0,473
273,7	0,481
274,2	0,489
274,7	0,496
275,1	0,503
275,6	0,509
276,1	0,515
276,5	0,522
277	0,528
277,4	0,533
277,9	0,537
278,4	0,541
278,8	0,545
279,3	0,549
279,8	0,552
280,2	0,555
280,7	0,557
281,1	0,558
281,6	0,56
282,1	0,561
282,5	0,561
283	0,561
283,4	0,56
283,9	0,559
284,4	0,557
284,8	0,555
285,3	0,552
285,8	0,55
286,2	0,547
286,7	0,543
287,1	0,538
287,6	0,534
288,1	0,528
288,5	0,522
289	0,515
289,5	0,508
289,9	0,5
290,4	0,493
290,8	0,484
291,3	0,476
291,8	0,467
292,2	0,458
292,7	0,447
293,1	0,438
293,6	0,427
294,1	0,416
294,5	0,405
295	0,393
295,5	0,382
295,9	0,371
296,4	0,359
296,8	0,347
297,3	0,335
297,8	0,324
298,2	0,312
298,7	0,3
299,1	0,289
299,6	0,277
300,1	0,267
300,5	0,256
301	0,246
301,5	0,236
301,9	0,225
302,4	0,216
302,8	0,206
303,3	0,196
303,8	0,187
304,2	0,177
304,7	0,169
305,1	0,16
305,6	0,153
306,1	0,145
306,5	0,138
307	0,131
307,4	0,124
307,9	0,118
308,4	0,113
308,8	0,106
309,3	0,101
309,8	0,096
310,2	0,091
310,7	0,086
311,1	0,082
311,6	0,078
312,1	0,074
312,5	0,07
313	0,067
313,4	0,063
313,9	0,06
314,4	0,057
314,8	0,054
315,3	0,052
315,7	0,049
316,2	0,047
316,7	0,045
317,1	0,043
317,6	0,041
318	0,04
318,5	0,038
319	0,037
319,4	0,035
319,9	0,034
320,3	0,033
320,8	0,031
321,3	0,03
321,7	0,029
322,2	0,028
322,6	0,027
323,1	0,027
323,6	0,026
324	0,026
324,5	0,025
324,9	0,025
325,4	0,024
325,9	0,024
326,3	0,023
326,8	0,023
327,2	0,022
327,7	0,022
328,2	0,022
328,6	0,022
329,1	0,021
329,5	0,021
330	0,021
330,5	0,02
330,9	0,02
331,4	0,02
331,8	0,019
332,3	0,019
332,8	0,019
333,2	0,019
333,7	0,019
334,1	0,018
334,6	0,018
335,1	0,018
335,5	0,018
336	0,018
336,4	0,018
336,9	0,018
337,4	0,018
337,8	0,018
338,3	0,018
338,7	0,018
339,2	0,018
339,7	0,018
340,1	0,018
340,6	0,017
341	0,017
341,5	0,017
342	0,017
342,4	0,017
342,9	0,017
343,3	0,016
343,8	0,016
344,2	0,016
344,7	0,017
345,2	0,017
345,6	0,017
346,1	0,017
346,5	0,017
347	0,017
347,5	0,017
347,9	0,017
348,4	0,017
348,8	0,017
349,3	0,016
349,8	0,016
350,2	0,016
350,7	0,015
351,1	0,015
351,6	0,015
352	0,015
352,5	0,015
353	0,015
353,4	0,015
353,9	0,015
354,3	0,015
354,8	0,015
355,3	0,015
355,7	0,015
356,2	0,015
356,6	0,015
357,1	0,015
357,5	0,015
358	0,015
358,5	0,015
358,9	0,015
359,4	0,015
359,8	0,015
360,3	0,015
360,8	0,015
361,2	0,015
361,7	0,015
362,1	0,015
362,6	0,015
363	0,014
363,5	0,014
364	0,014
364,4	0,014
364,9	0,013
365,3	0,014
365,8	0,014
366,3	0,014
366,7	0,014
367,2	0,013
367,6	0,014
368,1	0,013
368,5	0,013
369	0,013
369,5	0,012
369,9	0,012
370,4	0,013
370,8	0,013
371,3	0,013
371,7	0,013
372,2	0,013
372,7	0,013
373,1	0,013
373,6	0,013
374	0,013
374,5	0,013
374,9	0,013
375,4	0,014
375,9	0,013
376,3	0,013
376,8	0,013
377,2	0,013
377,7	0,013
378,2	0,013
378,6	0,012
379,1	0,012
379,5	0,012
380	0,011
380,4	0,011
380,9	0,011
381,4	0,01
381,8	0,01
382,3	0,01
382,7	0,01
383,2	0,01
383,6	0,01
384,1	0,01
384,6	0,01
385	0,011
385,5	0,011
385,9	0,011
386,4	0,011
386,8	0,011
387,3	0,011
387,7	0,011
388,2	0,012
388,7	0,011
389,1	0,011
389,6	0,012
390	0,011
390,5	0,011
390,9	0,011
391,4	0,011
391,9	0,011
392,3	0,011
392,8	0,011
393,2	0,011
393,7	0,011
394,1	0,011
394,6	0,011
395,1	0,011
395,5	0,01
396	0,011
396,4	0,01
396,9	0,01
397,3	0,01
397,8	0,01
398,2	0,01
398,7	0,01
399,2	0,01
399,6	0,01
400,1	0,01
400,5	0,009
401	0,009
401,4	0,009
401,9	0,008
402,4	0,008
402,8	0,009
403,3	0,009
403,7	0,009
404,2	0,009
404,6	0,009
405,1	0,009
405,5	0,009
406	0,009
406,5	0,009
406,9	0,009
407,4	0,009
407,8	0,008
408,3	0,008
408,7	0,008
409,2	0,008
409,6	0,008
410,1	0,007
410,6	0,008
411	0,008
411,5	0,008
411,9	0,008
412,4	0,008
412,8	0,008
413,3	0,008
413,7	0,008
414,2	0,008
414,7	0,008
415,1	0,008
415,6	0,008
416	0,008
416,5	0,009
416,9	0,009
417,4	0,009
417,8	0,009
418,3	0,009
418,8	0,009
419,2	0,009
419,7	0,009
420,1	0,009
420,6	0,009
421	0,009
421,5	0,009
421,9	0,009
422,4	0,009
422,8	0,01
423,3	0,01
423,8	0,009
424,2	0,009
424,7	0,009
425,1	0,008
425,6	0,008
426	0,008
426,5	0,008
426,9	0,008
427,4	0,008
427,9	0,009
428,3	0,008
428,8	0,008
429,2	0,008
429,7	0,008
430,1	0,008
430,6	0,008
431	0,008
431,5	0,008
431,9	0,008
432,4	0,008
432,8	0,008
433,3	0,008
433,8	0,008
434,2	0,008
434,7	0,008
435,1	0,008
435,6	0,007
436	0,007
436,5	0,007
436,9	0,007
437,4	0,007
437,8	0,007
438,3	0,007
438,8	0,007
439,2	0,008
439,7	0,008
440,1	0,008
440,6	0,008
441	0,008
441,5	0,008
441,9	0,009
442,4	0,008
442,8	0,008
443,3	0,007
443,7	0,007
444,2	0,008
444,7	0,008
445,1	0,007
445,6	0,008
446	0,008
446,5	0,008
446,9	0,008
447,4	0,008
447,8	0,008
448,3	0,008
448,7	0,008
449,2	0,007
449,6	0,007
450,1	0,007
450,6	0,007
451	0,007
451,5	0,008
451,9	0,008
452,4	0,008
452,8	0,008
453,3	0,008
453,7	0,007
454,2	0,007
454,6	0,007
455,1	0,007
455,5	0,007
456	0,007
456,4	0,007
456,9	0,007
457,3	0,007
457,8	0,007
458,3	0,007
458,7	0,007
459,2	0,007
459,6	0,007
460,1	0,007
460,5	0,008
461	0,008
461,4	0,008
461,9	0,008
462,3	0,007
462,8	0,007
463,2	0,007
463,7	0,007
464,1	0,007
464,6	0,006
465	0,006
465,5	0,006
466	0,006
466,4	0,006
466,9	0,006
467,3	0,006
467,8	0,006
468,2	0,006
468,7	0,007
469,1	0,007
469,6	0,007
470	0,006
470,5	0,006
470,9	0,006
471,4	0,006
471,8	0,006
472,3	0,006
472,7	0,006
473,2	0,007
473,6	0,007
474,1	0,007
474,5	0,006
475	0,006
475,4	0,006
475,9	0,006
476,4	0,006
476,8	0,006
477,3	0,006
477,7	0,006
478,2	0,006
478,6	0,006
479,1	0,006
479,5	0,007
480	0,007
480,4	0,007
480,9	0,007
481,3	0,007
481,8	0,006
482,2	0,006
482,7	0,006
483,1	0,006
483,6	0,006
484	0,006
484,5	0,007
484,9	0,007
485,4	0,007
485,8	0,007
486,3	0,007
486,7	0,007
487,2	0,007
487,6	0,007
488,1	0,006
488,5	0,006
489	0,006
489,4	0,006
489,9	0,006
490,4	0,005
490,8	0,007
491,3	0,007
491,7	0,007
492,2	0,007
492,6	0,007
493,1	0,008
493,5	0,008
494	0,007
494,4	0,007
494,9	0,006
495,3	0,006
495,8	0,005
496,2	0,005
496,7	0,005
497,1	0,006
497,6	0,006
498	0,006
498,5	0,005
498,9	0,006
499,4	0,005
499,8	0,005
500,3	0,005
500,7	0,005
501,2	0,005
501,6	0,005
502,1	0,005
502,5	0,005
503	0,005
503,4	0,006
503,9	0,006
504,3	0,006
504,8	0,006
505,2	0,007
505,7	0,006
506,1	0,006
506,6	0,006
507	0,006
507,5	0,005
507,9	0,005
508,4	0,005
508,8	0,005
509,3	0,005
509,7	0,005
510,2	0,005
510,6	0,006
511,1	0,005
511,5	0,005
512	0,005
512,4	0,005
512,9	0,004
513,3	0,004
513,8	0,004
514,2	0,004
514,7	0,004
515,1	0,005
515,6	0,004
516	0,004
516,5	0,005
516,9	0,005
517,4	0,005
517,8	0,004
518,3	0,004
518,7	0,004
519,2	0,004
519,6	0,004
520,1	0,004
520,5	0,004
521	0,005
521,4	0,005
521,9	0,005
522,3	0,005
522,8	0,005
523,2	0,005
523,7	0,005
524,1	0,004
524,6	0,004
525	0,004
525,5	0,004
525,9	0,005
526,4	0,005
526,8	0,005
527,3	0,004
527,7	0,004
528,2	0,004
528,6	0,004
529,1	0,003
529,5	0,003
530	0,003
530,4	0,004
530,9	0,004
531,3	0,004
531,8	0,004
532,2	0,004
532,6	0,004
533,1	0,004
533,5	0,003
534	0,003
534,4	0,003
534,9	0,003
535,3	0,004
535,8	0,004
536,2	0,003
536,7	0,004
537,1	0,004
537,6	0,004
538	0,005
538,5	0,005
538,9	0,005
539,4	0,005
539,8	0,005
540,3	0,004
540,7	0,004
541,2	0,004
541,6	0,004
542,1	0,004
542,5	0,004
543	0,004
543,4	0,004
543,9	0,004
544,3	0,003
544,8	0,003
545,2	0,003
545,7	0,003
546,1	0,002
546,5	0,002
547	0,002
547,4	0,002
547,9	0,002
548,3	0,002
548,8	0,002
549,2	0,003
549,7	0,003
550,1	0,003
550,6	0,002
551	0,003
551,5	0,003
551,9	0,003
552,4	0,003
552,8	0,002
553,3	0,002
553,7	0,002
554,2	0,002
554,6	0,002
555,1	0,002
555,5	0,002
555,9	0,002
556,4	0,003
556,8	0,002
557,3	0,003
557,7	0,003
558,2	0,003
558,6	0,003
559,1	0,003
559,5	0,002
560	0,003
560,4	0,003
560,9	0,002
561,3	0,002
561,8	0,002
562,2	0,003
562,7	0,003
563,1	0,002
563,6	0,002
564	0,002
564,4	0,002
564,9	0,002
565,3	0,002
565,8	0,002
566,2	0,002
566,7	0,002
567,1	0,002
567,6	0,002
568	0,002
568,5	0,002
568,9	0,002
569,4	0,002
569,8	0,002
570,3	0,002
570,7	0,002
571,1	0,002
571,6	0,002
572	0,002
572,5	0,002
572,9	0,002
573,4	0,002
573,8	0,002
574,3	0,002
574,7	0,001
575,2	0,002
575,6	0,002
576,1	0,001
576,5	0,001
576,9	0,001
577,4	0,002
577,8	0,002
578,3	0,002
578,7	0,001
579,2	0,001
579,6	0,001
580,1	0,001
580,5	0,001
581	0,001
581,4	0,002
581,9	0,002
582,3	0,001
582,7	0,001
583,2	0,001
583,6	0,001
584,1	0,001
584,5	0,001
585	0,002
585,4	0,002
585,9	0,002
586,3	0,002
586,8	0,002
587,2	0,002
587,6	0,002
588,1	0,002
588,5	0,001
589	0,001
589,4	0,002
589,9	0,001
590,3	0,001
590,8	0,001
591,2	0,001
591,7	0,001
592,1	0,001
592,5	0,001
593	0,001
593,4	0,002
593,9	0,001
594,3	0,001
594,8	0,001
595,2	0,001
595,7	0,001
596,1	0,001
596,6	0,001
597	0,001
597,4	0,001
597,9	0,001
598,3	0,001
598,8	0,001
599,2	0,001
599,7	0,001
600,1	0,001
600,6	0,001
601	0,001
601,4	0,001
601,9	0,001
602,3	0,001
602,8	0,001
603,2	0,001
603,7	0,001
604,1	0,001
604,6	0,001
605	0,001
605,4	0,001
605,9	0,001
606,3	0
606,8	0,001
607,2	0,001
607,7	0
608,1	0
608,6	0
609	-0
609,4	0
609,9	-0
610,3	-0,001
610,8	-0
611,2	-0
611,7	-0
612,1	0
612,6	-0
613	0
613,4	0
613,9	0
614,3	0
614,8	0
615,2	0
615,7	0
616,1	0
616,6	0
617	0
617,4	0
617,9	0
618,3	0,001
618,8	0
619,2	0
619,7	0
620,1	0
620,5	0
621	0,001
621,4	0,001
621,9	0,001
622,3	0,001
622,8	0,001
623,2	0,001
623,6	0,001
624,1	0,001
624,5	0
625	0
625,4	0
625,9	0
626,3	0
626,8	0
627,2	0
627,6	0,001
628,1	0,001
628,5	0,001
629	0,001
629,4	0,001
629,9	0,001
630,3	0,001
630,7	0,001
631,2	0,001
631,6	0,001
632,1	0,001
632,5	0,001
633	0,001
633,4	0,001
633,8	0,001
634,3	0,001
634,7	0,001
635,2	0,001
635,6	0,001
636,1	0,001
636,5	0,001
636,9	0
637,4	0
637,8	0
638,3	-0
638,7	-0
639,2	-0
639,6	-0
640	-0
640,5	0
640,9	0,001
641,4	0,001
641,8	0
642,2	0
642,7	0,001
643,1	0
643,6	-0
644	-0
644,5	-0
644,9	-0
645,3	-0
645,8	-0,001
646,2	-0
646,7	-0
647,1	-0,001
647,6	-0,001
648	-0,001
648,4	-0,001
648,9	-0
649,3	-0
649,8	0
650,2	0
650,6	0
651,1	0
651,5	0
652	-0
652,4	-0,001
652,9	-0,001
653,3	-0,001
653,7	-0,001
654,2	-0,001
654,6	-0,001
655,1	-0,001
655,5	0
655,9	0
656,4	0
656,8	0,001
657,3	0,001
657,7	0,001
658,2	0,001
658,6	0
659	-0
659,5	-0,001
659,9	-0,001
660,4	-0,001
660,8	-0,001
661,2	-0,001
661,7	-0,001
662,1	-0,001
662,6	-0,001
663	-0,001
663,4	-0,001
663,9	-0,001
664,3	-0,001
664,8	-0,001
665,2	-0,001
665,6	-0,001
666,1	-0,001
666,5	-0,001
667	-0,001
667,4	-0,001
667,9	-0,001
668,3	-0,001
668,7	-0,001
669,2	-0,001
669,6	-0,001
670,1	-0,001
670,5	-0
670,9	-0
671,4	-0
671,8	-0
672,3	-0
672,7	-0
673,1	-0,001
673,6	-0
674	-0,001
674,5	-0,001
674,9	-0,001
675,3	-0
675,8	-0
676,2	0
676,7	-0
677,1	-0
677,5	-0
678	0
678,4	-0
678,9	-0,001
679,3	-0,001
679,7	-0,001
680,2	-0,001
680,6	-0,001
681,1	-0,001
681,5	-0,001
681,9	-0
682,4	-0
682,8	-0
683,3	-0
683,7	-0
684,1	-0,001
684,6	-0,001
685	-0,001
685,5	-0,001
685,9	-0,001
686,3	-0,001
686,8	-0,001
687,2	-0,001
687,7	-0,001
688,1	-0,001
688,5	-0,001
689	-0,002
689,4	-0,002
689,9	-0,001
690,3	-0,001
690,7	-0,001
691,2	-0,001
691,6	-0,001
692	-0,001
692,5	-0,001
692,9	-0,001
693,4	-0,001
693,8	-0,001
694,2	-0
694,7	-0,001
695,1	-0,001
695,6	-0,001
696	-0,001
696,4	-0
696,9	-0
697,3	-0
697,8	0
698,2	0
698,6	0
699,1	0
699,5	-0
699,9	-0
700,4	-0
700,8	-0,001
701,3	-0,001
701,7	-0,001
702,1	-0,001
702,6	-0,001
703	-0,001
703,5	-0,001
703,9	-0,001
704,3	-0,001
704,8	-0,001
705,2	-0
705,6	-0
706,1	-0
706,5	-0
707	-0
707,4	-0
707,8	-0
708,3	-0
708,7	-0,001
709,2	-0,001
709,6	-0,001
710	-0,001
710,5	-0,001
710,9	-0,001
711,3	-0,001
711,8	-0,001
712,2	-0,001
712,7	-0,001
713,1	-0,001
713,5	-0
714	-0
714,4	-0
714,8	-0
715,3	-0
715,7	-0
716,2	-0
716,6	-0,001
717	-0,001
717,5	-0,001
717,9	-0,001
718,3	-0,001
718,8	-0,001
719,2	-0,001
719,7	-0,001
720,1	-0,001
720,5	-0
721	-0
721,4	-0,001
721,8	-0
722,3	-0,001
722,7	-0,001
723,2	-0,001
723,6	-0,001
724	-0,001
724,5	-0,001
724,9	-0,001
725,3	-0
725,8	-0
726,2	-0
726,7	-0,001
727,1	-0,001
727,5	-0,001
728	-0,001
728,4	-0,001
728,8	-0,001
729,3	-0,001
729,7	-0,001
730,1	-0,001
730,6	-0,001
731	-0
731,5	-0
731,9	-0
732,3	-0
732,8	-0,001
733,2	-0,001
733,6	-0,001
734,1	-0,001
734,5	-0,001
734,9	-0,001
735,4	-0,001
735,8	-0,001
736,3	-0,001
736,7	-0,001
737,1	-0,001
737,6	-0,001
738	-0,001
738,4	-0,001
738,9	-0,001
739,3	-0,001
739,7	-0,001
740,2	-0,001
740,6	-0,001
741,1	-0,001
741,5	-0,001
741,9	-0,001
742,4	-0,001
742,8	-0,001
743,2	-0,001
743,7	-0,002
744,1	-0,002
744,5	-0,002
745	-0,002
745,4	-0,001
745,8	-0,002
746,3	-0,002
746,7	-0,001
747,2	-0,001
747,6	-0,001
748	-0,001
748,5	-0,001
748,9	-0,001
749,3	-0
749,8	-0
750,2	-0
750,6	-0
751,1	-0
751,5	-0
751,9	-0,001
752,4	-0,001
752,8	-0,001
753,3	-0,001
753,7	-0,001
754,1	-0,001
754,6	-0,001
755	-0,001
755,4	-0,001
755,9	-0,001
756,3	-0,001
756,7	-0,001
757,2	-0,001
757,6	-0,001
758	-0,001
758,5	-0,001
758,9	-0,001
759,3	-0,001
759,8	-0,001
760,2	-0,001
760,6	-0
761,1	-0
761,5	-0
761,9	-0,001
762,4	-0,001
762,8	-0
763,3	-0
763,7	-0
764,1	-0
764,6	-0
765	-0
765,4	-0
765,9	-0
766,3	-0,001
766,7	-0,001
767,2	-0,001
767,6	-0,001
768	-0,001
768,5	-0
768,9	-0
769,3	-0
769,8	-0
770,2	-0
770,6	-0
771,1	-0,001
771,5	-0,001
771,9	-0,001
772,4	-0,001
772,8	-0,001
773,2	-0,001
773,7	-0,001
774,1	-0,001
774,5	-0,001
775	-0,001
775,4	-0,002
775,8	-0,002
776,3	-0,001
776,7	-0,002
777,1	-0,002
777,6	-0,002
778	-0,002
778,4	-0,001
778,9	-0,001
779,3	-0,001
779,7	-0,001
780,2	-0,001
780,6	-0,001
781	-0,001
781,5	-0,001
781,9	-0,001
782,3	-0,001
782,8	-0,001
783,2	-0,001
783,6	-0,001
784,1	-0,001
784,5	-0,001
784,9	-0,001
785,4	-0,001
785,8	-0,001
786,2	-0,001
786,7	-0,001
787,1	-0,001
787,5	-0,001
788	-0,001
788,4	-0,001
788,8	-0
789,3	-0,001
789,7	-0
790,1	-0
790,6	-0
791	-0
791,4	-0
791,9	-0,001
792,3	-0,001
792,7	-0,001
793,2	-0,001
793,6	-0,001
794	-0,001
794,5	-0
794,9	-0
795,3	0
795,8	0
796,2	-0
796,6	-0
797,1	-0
797,5	-0,001
797,9	-0,001
798,4	-0,001
798,8	-0,001
799,2	-0,001
799,7	-0,001
800,1	-0,001
800,5	-0,001
801	-0,001
801,4	-0,001
801,8	-0,001
802,2	-0,001
802,7	-0
803,1	-0
803,5	-0,001
804	-0,001
804,4	-0,001
804,8	-0,001
805,3	-0,001
805,7	-0,001
806,1	-0,001
806,6	-0,001
807	-0,001
807,4	-0,001
807,9	-0
808,3	-0
808,7	-0
809,2	-0
809,6	-0
810	0
810,4	0
810,9	0
811,3	0
811,7	0
812,2	-0
812,6	-0,001
813	-0,001
813,5	-0,001
813,9	-0,001
814,3	-0,001
814,8	-0,001
815,2	-0,001
815,6	-0,001
816,1	-0,001
816,5	-0,002
816,9	-0,002
817,3	-0,002
817,8	-0,001
818,2	-0,001
818,6	-0,001
819,1	-0,001
819,5	-0,001
819,9	-0,001
820,4	-0,001
820,8	-0,001
821,2	-0,002
821,7	-0,002
822,1	-0,002
822,5	-0,002
822,9	-0,002
823,4	-0,002
823,8	-0,002
824,2	-0,001
824,7	-0,001
825,1	-0,001
825,5	-0,001
826	-0,001
826,4	-0,001
826,8	-0,001
827,3	-0,002
827,7	-0,002
828,1	-0,002
828,5	-0,002
829	-0,002
829,4	-0,002
829,8	-0,002
830,3	-0,002
830,7	-0,002
831,1	-0,002
831,6	-0,002
832	-0,002
832,4	-0,001
832,8	-0,001
833,3	-0,001
833,7	-0,001
834,1	-0,001
834,6	-0,001
835	-0,001
835,4	-0,002
835,8	-0,002
836,3	-0,001
836,7	-0,002
837,1	-0,002
837,6	-0,002
838	-0,002
838,4	-0,002
838,9	-0,002
839,3	-0,002
839,7	-0,002
840,1	-0,001
840,6	-0,002
841	-0,001
841,4	-0,001
841,9	-0,001
842,3	-0,001
842,7	-0,001
843,1	-0,001
843,6	-0,001
844	-0,001
844,4	-0,001
844,9	-0,001
845,3	-0,001
845,7	-0,001
846,2	-0,002
846,6	-0,002
847	-0,002
847,4	-0,002
847,9	-0,002
848,3	-0,002
848,7	-0,002
849,2	-0,002
849,6	-0,002
850	-0,002
850,4	-0,002
850,9	-0,002
851,3	-0,001
851,7	-0,001
852,2	-0,001
852,6	-0,001
853	-0
853,4	-0
853,9	-0,001
854,3	-0,001
854,7	-0,001
855,2	-0,001
855,6	-0,001
856	-0,001
856,4	-0,001
856,9	-0,001
857,3	-0,001
857,7	-0,001
858,2	-0,001
858,6	-0,001
859	-0,001
859,4	-0,001
859,9	-0,001
860,3	-0
860,7	-0
861,1	-0
861,6	-0,001
862	-0,001
862,4	-0,001
862,9	-0,001
863,3	-0,001
863,7	-0,001
864,1	-0,001
864,6	-0,001
865	-0
865,4	-0
865,9	-0,001
866,3	-0,001
866,7	-0,001
867,1	-0,001
867,6	-0,001
868	-0,001
868,4	-0,001
868,8	-0
869,3	-0,001
869,7	-0,001
870,1	-0,001
870,6	-0
871	-0,001
871,4	-0,001
871,8	-0,001
872,3	-0,001
872,7	-0,001
873,1	-0,001
873,5	-0,001
874	-0,001
874,4	-0,001
874,8	-0,002
875,3	-0,002
875,7	-0,002
876,1	-0,002
876,5	-0,002
877	-0,002
877,4	-0,001
877,8	-0,001
878,2	-0,001
878,7	-0,001
879,1	-0,001
879,5	-0,001
879,9	-0,001
880,4	-0,001
880,8	-0,001
881,2	-0,001
881,7	-0,001
882,1	-0
882,5	0
882,9	-0
883,4	-0
883,8	-0
884,2	-0
884,6	-0
885,1	-0,001
885,5	-0,001
885,9	-0,001
886,3	-0,002
886,8	-0,002
887,2	-0,002
887,6	-0,001
888	-0,001
888,5	-0,001
888,9	-0,001
889,3	-0
889,8	-0
890,2	-0,001
890,6	-0,001
891	-0
891,5	-0
891,9	0
892,3	0
892,7	0
893,2	0
893,6	0
894	-0
894,4	-0
894,9	-0
895,3	-0
895,7	-0
896,1	-0
896,6	-0
897	-0,001
897,4	-0,001
897,8	-0,001
898,3	-0,001
898,7	-0,001
899,1	-0,001
899,5	-0,002
900	-0,002
900,4	-0,001
900,8	-0,002
901,2	-0,001
901,7	-0,001
902,1	-0,001
902,5	-0,001
902,9	-0,001
903,4	-0,001
903,8	-0
904,2	-0
904,6	-0
905,1	0
905,5	0
905,9	0
906,3	0
906,8	0
907,2	-0
907,6	-0
908	-0
908,5	0
908,9	0
909,3	0
909,7	0
910,2	0
910,6	0,001
911	0,001
911,4	0,001
911,9	0,001
912,3	0,001
912,7	0,001
913,1	0
913,6	-0
914	-0
914,4	-0
914,8	-0,001
915,3	-0,001
915,7	-0,001
916,1	-0,002
916,5	-0,002
916,9	-0,002
917,4	-0,002
917,8	-0,002
918,2	-0,002
918,6	-0,002
919,1	-0,001
919,5	-0,001
919,9	-0,001
920,3	-0,001
920,8	-0,001
921,2	-0,001
921,6	-0,001
922	-0,001
922,5	-0
922,9	-0
923,3	-0
923,7	-0
924,2	-0
924,6	-0,001
925	-0,001
925,4	-0,001
925,8	-0,001
926,3	-0,001
926,7	-0,001
927,1	-0,001
927,5	-0,001
928	-0,001
928,4	-0,001
928,8	-0,001
929,2	-0
929,7	0
930,1	0
930,5	0
930,9	0
931,3	0
931,8	-0
932,2	-0
932,6	-0,001
933	-0
933,5	0
933,9	0
934,3	0
934,7	0
935,2	0,001
935,6	0,001
936	0,001
936,4	0
936,8	-0
937,3	-0
937,7	-0
938,1	-0
938,5	-0
939	-0,001
939,4	-0,001
939,8	-0,001
940,2	-0,001
940,6	-0,001
941,1	-0
941,5	-0
941,9	0
942,3	0
942,8	0,001
943,2	0,001
943,6	0,001
944	0
944,4	-0
944,9	-0
945,3	-0,001
945,7	-0,001
946,1	-0,001
946,6	-0,001
947	-0,001
947,4	-0,001
947,8	-0,001
948,2	-0,001
948,7	-0,001
949,1	-0,001
949,5	-0,001
949,9	-0,001
950,3	-0,001
950,8	-0,002
951,2	-0,001
951,6	-0,001
952	-0,001
952,5	-0,001
952,9	-0,001
953,3	-0,001
953,7	-0
954,1	-0,001
954,6	-0,001
955	-0
955,4	-0,001
955,8	0
956,2	0
956,7	-0
957,1	0,001
957,5	0
957,9	0
958,3	0
958,8	-0
959,2	-0,001
959,6	-0
960	-0,001
960,5	-0,001
960,9	-0,001
961,3	-0,001
961,7	-0,001
962,1	-0
962,6	-0
963	0
963,4	0
963,8	0,001
964,2	0,001
964,7	0,001
965,1	0,001
965,5	0,001
965,9	0,001
966,3	0,002
966,8	0,001
967,2	0,001
967,6	0,001
968	0
968,4	0
968,9	-0
969,3	-0
969,7	-0
970,1	-0
970,5	-0
971	-0
971,4	-0,001
971,8	-0,001
972,2	-0,002
972,6	-0,002
973,1	-0,002
973,5	-0,002
973,9	-0,002
974,3	-0,002
974,7	-0,002
975,2	-0,001
975,6	-0,001
976	-0,001
976,4	-0,001
976,8	-0,001
977,3	-0,001
977,7	-0
978,1	-0
978,5	-0,001
978,9	-0
979,4	-0
979,8	-0
980,2	0
980,6	0
981	-0
981,5	-0
981,9	-0
982,3	-0
982,7	-0,001
983,1	-0,001
983,6	-0,001
984	-0
984,4	-0
984,8	-0
985,2	-0,001
985,6	-0,001
986,1	-0,001
986,5	-0,001
986,9	-0,001
987,3	-0,001
987,7	-0,001
988,2	-0,001
988,6	-0
989	0
989,4	-0
989,8	-0,001
990,3	-0,001
990,7	-0
991,1	-0,001
991,5	-0,001
991,9	-0,001
992,3	-0,001
992,8	-0,001
993,2	-0,001
993,6	-0,001
994	-0
994,4	-0,001
994,9	-0,001
995,3	-0
995,7	-0
996,1	-0
996,5	0
996,9	-0
997,4	0
997,8	0
998,2	-0,001
998,6	-0,001
999	-0,002
999,5	-0,002
999,9	-0,002
1000,3	-0,003
1000,7	-0,003
1001,1	-0,002
1001,5	-0,002
1002	-0,002
1002,4	-0,002
1002,8	-0,001
1003,2	-0,001
1003,6	-0,002
1004	-0,002
1004,5	-0,002
1004,9	-0,001
1005,3	-0,002
1005,7	-0,002
1006,1	-0,002
1006,6	-0,002
1007	-0,001
1007,4	-0,001
1007,8	-0,001
1008,2	-0,002
1008,6	-0,002
1009,1	-0,002
1009,5	-0,002
1009,9	-0,002
1010,3	-0,002
1010,7	-0,002
1011,1	-0,001
1011,6	-0,001
1012	-0,001
1012,4	-0
1012,8	0
1013,2	-0
1013,6	-0
1014,1	-0
1014,5	0
1014,9	0
1015,3	0
1015,7	-0
1016,1	0
1016,6	0
1017	-0
1017,4	-0,001
1017,8	-0,001
1018,2	-0,001
1018,6	-0,002
1019,1	-0,002
1019,5	-0,002
1019,9	-0,002
1020,3	-0,002
1020,7	-0,003
1021,1	-0,002
1021,6	-0,002
1022	-0,002
1022,4	-0,002
1022,8	-0,002
1023,2	-0,001
1023,6	-0,001
1024,1	-0
1024,5	-0,001
1024,9	-0
1025,3	-0,001
1025,7	-0
1026,1	-0,001
1026,6	-0,001
1027	-0,002
1027,4	-0,002
1027,8	-0,002
1028,2	-0,002
1028,6	-0,002
1029	-0,001
1029,5	-0,002
1029,9	-0,001
1030,3	-0,001
1030,7	-0,001
1031,1	-0,001
1031,5	-0,001
1032	-0,001
1032,4	-0,002
1032,8	-0,002
1033,2	-0,002
1033,6	-0,003
1034	-0,003
1034,4	-0,003
1034,9	-0,003
1035,3	-0,003
1035,7	-0,003
1036,1	-0,002
1036,5	-0,002
1036,9	-0,002
1037,4	-0,001
1037,8	-0,001
1038,2	-0
1038,6	-0,001
1039	-0,001
1039,4	-0,001
1039,8	-0,001
1040,3	-0,001
1040,7	-0,001
1041,1	-0,001
1041,5	-0,001
1041,9	-0,001
1042,3	-0,001
1042,7	-0,001
1043,2	-0,001
1043,6	-0,001
1044	-0
1044,4	-0,001
1044,8	-0,001
1045,2	-0,002
1045,6	-0,001
1046,1	-0,002
1046,5	-0,001
1046,9	-0,002
1047,3	-0,001
1047,7	-0,002
1048,1	-0,002
1048,5	-0,002
1049	-0,002
1049,4	-0,003
1049,8	-0,002
1050,2	-0,002
1050,6	-0,002
1051	-0,001
1051,4	-0,001
1051,9	-0,001
1052,3	-0,001
1052,7	-0,001
1053,1	-0,001
1053,5	-0,001
1053,9	-0,001
1054,3	0
1054,8	-0
1055,2	-0
1055,6	-0
1056	-0,001
1056,4	-0,003
1056,8	-0,002
1057,2	-0,003
1057,6	-0,003
1058,1	-0,003
1058,5	-0,003
1058,9	-0,003
1059,3	-0,002
1059,7	-0,002
1060,1	-0,002
1060,5	-0,002
1061	-0,002
1061,4	-0,003
1061,8	-0,003
1062,2	-0,004
1062,6	-0,004
1063	-0,003
1063,4	-0,002
1063,8	-0,003
1064,3	-0,002
1064,7	-0,003
1065,1	-0,003
1065,5	-0,002
1065,9	-0,003
1066,3	-0,003
1066,7	-0,003
1067,1	-0,003
1067,6	-0,002
1068	-0,002
1068,4	-0,002
1068,8	-0,002
1069,2	-0,002
1069,6	-0,001
1070	-0,002
1070,4	-0,002
1070,9	-0,001
1071,3	-0,002
1071,7	-0,002
1072,1	-0,003
1072,5	-0,003
1072,9	-0,003
1073,3	-0,004
1073,7	-0,004
1074,2	-0,003
1074,6	-0,004
1075	-0,003
1075,4	-0,004
1075,8	-0,003
1076,2	-0,003
1076,6	-0,004
1077	-0,005
1077,5	-0,004
1077,9	-0,004
1078,3	-0,003
1078,7	-0,003
1079,1	-0,001
1079,5	-0,001
1079,9	0
1080,3	0,001
1080,7	0,001
1081,2	0,002
1081,6	0,002
1082	0
1082,4	0,002
1082,8	0
1083,2	0,001
1083,6	-0
1084	-0,002
1084,5	-0,003
1084,9	-0,003
1085,3	-0,003
1085,7	-0,001
1086,1	-0,002
1086,5	-0
1086,9	0
1087,3	0,003
1087,7	0,005
1088,2	0,004
1088,6	0,003
1089	0,004
1089,4	0,004
1089,8	0,005
1090,2	0,005
1090,6	0,003
1091	0,003
1091,4	0,002
1091,9	-0
1092,3	-0,002
1092,7	-0,003
1093,1	-0,002
1093,5	-0,004
1093,9	-0,002
1094,3	-0,004
1094,7	-0,005
1095,1	-0,002
1095,5	-0,005
1096	-0,006
1096,4	-0,005
1096,8	-0,01
1097,2	-0,005
1097,6	0,002
1098	-0,002
1098,4	-0,002
1098,8	-0,004
1099,2	-0,001
1099,6	0,01
1100,1	0,011
1100,5	0,015
1100,9	0,02
1101,3	0,029
1101,7	0,031
1102,1	0,031
1102,5	0,022
1102,9	0,015
1103,3	0,003
1103,7	0,001
1104,2	-0,01
1104,6	-0,004
1105	-0,01
1105,4	-0,005
1105,8	0,001
1106,2	0,007
1106,6	0,003
1107	0,031
1107,4	0,024
1107,8	0,064
1108,3	-0
