Data from Absorbance_122.txt Node
Date: Fri Nov 13 19:04:32 MSK 2020
User: vat
Spectrometer: MAYP114033
Trigger mode: 0
Integration Time (sec): 8,000000E-3
Scans to average: 10
Electric dark correction enabled: true
Nonlinearity correction enabled: false
Boxcar width: 3
XAxis mode: Wavelengths
Number of Pixels in Spectrum: 2068
>>>>>Begin Spectral Data<<<<<
199,4	0,095
199,9	0,348
200,4	0,137
200,8	0,039
201,3	0,049
201,8	0,022
202,2	0,004
202,7	0,009
203,2	-0,009
203,6	0
204,1	0,013
204,6	0,009
205	0,013
205,5	0,025
206	0,033
206,4	0,03
206,9	0,021
207,4	0,025
207,8	0,018
208,3	0,021
208,8	0,026
209,2	0,018
209,7	0,005
210,2	0,002
210,6	-0,004
211,1	-0
211,5	-0,006
212	-0,015
212,5	-0,011
212,9	0,01
213,4	0,005
213,9	0,005
214,3	0,013
214,8	0,017
215,3	0,011
215,7	0,012
216,2	0,009
216,7	0,011
217,1	0,006
217,6	-0,001
218,1	-0,009
218,5	-0,007
219	-0,016
219,5	-0,009
219,9	0,003
220,4	0,015
220,9	0,021
221,3	0,03
221,8	0,035
222,3	0,052
222,7	0,04
223,2	0,045
223,6	0,039
224,1	0,037
224,6	0,042
225	0,049
225,5	0,042
226	0,048
226,4	0,048
226,9	0,05
227,4	0,041
227,8	0,033
228,3	0,026
228,8	0,03
229,2	0,025
229,7	0,022
230,2	0,021
230,6	0,02
231,1	0,03
231,5	0,023
232	0,014
232,5	0,021
232,9	0,01
233,4	0,009
233,9	0,001
234,3	-0,003
234,8	0,005
235,3	0,009
235,7	0,003
236,2	0,018
236,7	0,021
237,1	0,039
237,6	0,037
238,1	0,028
238,5	0,024
239	0,031
239,4	0,025
239,9	0,023
240,4	0,026
240,8	0,022
241,3	0,037
241,8	0,049
242,2	0,046
242,7	0,047
243,2	0,051
243,6	0,046
244,1	0,047
244,6	0,047
245	0,043
245,5	0,05
245,9	0,056
246,4	0,062
246,9	0,068
247,3	0,071
247,8	0,071
248,3	0,076
248,7	0,076
249,2	0,08
249,7	0,079
250,1	0,08
250,6	0,077
251	0,078
251,5	0,082
252	0,079
252,4	0,084
252,9	0,082
253,4	0,083
253,8	0,086
254,3	0,087
254,8	0,086
255,2	0,087
255,7	0,088
256,1	0,091
256,6	0,092
257,1	0,092
257,5	0,094
258	0,097
258,5	0,099
258,9	0,101
259,4	0,104
259,9	0,107
260,3	0,111
260,8	0,114
261,2	0,117
261,7	0,121
262,2	0,125
262,6	0,127
263,1	0,131
263,6	0,134
264	0,139
264,5	0,141
264,9	0,145
265,4	0,148
265,9	0,151
266,3	0,155
266,8	0,158
267,3	0,161
267,7	0,165
268,2	0,169
268,7	0,173
269,1	0,177
269,6	0,181
270	0,187
270,5	0,192
271	0,196
271,4	0,199
271,9	0,202
272,4	0,206
272,8	0,21
273,3	0,212
273,7	0,214
274,2	0,218
274,7	0,221
275,1	0,224
275,6	0,226
276,1	0,229
276,5	0,231
277	0,234
277,4	0,236
277,9	0,239
278,4	0,241
278,8	0,243
279,3	0,245
279,8	0,246
280,2	0,248
280,7	0,249
281,1	0,251
281,6	0,251
282,1	0,251
282,5	0,252
283	0,252
283,4	0,252
283,9	0,251
284,4	0,25
284,8	0,249
285,3	0,248
285,8	0,247
286,2	0,245
286,7	0,243
287,1	0,242
287,6	0,24
288,1	0,238
288,5	0,236
289	0,233
289,5	0,229
289,9	0,226
290,4	0,222
290,8	0,218
291,3	0,214
291,8	0,21
292,2	0,206
292,7	0,202
293,1	0,197
293,6	0,193
294,1	0,188
294,5	0,183
295	0,178
295,5	0,173
295,9	0,168
296,4	0,163
296,8	0,158
297,3	0,152
297,8	0,147
298,2	0,142
298,7	0,136
299,1	0,131
299,6	0,126
300,1	0,121
300,5	0,117
301	0,111
301,5	0,107
301,9	0,103
302,4	0,098
302,8	0,094
303,3	0,089
303,8	0,085
304,2	0,081
304,7	0,077
305,1	0,073
305,6	0,069
306,1	0,066
306,5	0,062
307	0,059
307,4	0,056
307,9	0,053
308,4	0,051
308,8	0,048
309,3	0,046
309,8	0,044
310,2	0,042
310,7	0,04
311,1	0,038
311,6	0,036
312,1	0,034
312,5	0,032
313	0,031
313,4	0,029
313,9	0,028
314,4	0,026
314,8	0,025
315,3	0,023
315,7	0,022
316,2	0,021
316,7	0,02
317,1	0,019
317,6	0,019
318	0,018
318,5	0,018
319	0,017
319,4	0,016
319,9	0,016
320,3	0,015
320,8	0,014
321,3	0,014
321,7	0,013
322,2	0,012
322,6	0,012
323,1	0,012
323,6	0,012
324	0,012
324,5	0,012
324,9	0,012
325,4	0,012
325,9	0,012
326,3	0,012
326,8	0,012
327,2	0,011
327,7	0,011
328,2	0,011
328,6	0,011
329,1	0,011
329,5	0,01
330	0,01
330,5	0,01
330,9	0,01
331,4	0,01
331,8	0,01
332,3	0,01
332,8	0,01
333,2	0,009
333,7	0,009
334,1	0,009
334,6	0,009
335,1	0,009
335,5	0,009
336	0,009
336,4	0,009
336,9	0,009
337,4	0,009
337,8	0,009
338,3	0,009
338,7	0,009
339,2	0,009
339,7	0,009
340,1	0,009
340,6	0,009
341	0,008
341,5	0,008
342	0,008
342,4	0,008
342,9	0,009
343,3	0,009
343,8	0,008
344,2	0,008
344,7	0,009
345,2	0,009
345,6	0,009
346,1	0,009
346,5	0,009
347	0,009
347,5	0,009
347,9	0,009
348,4	0,009
348,8	0,009
349,3	0,008
349,8	0,008
350,2	0,008
350,7	0,008
351,1	0,008
351,6	0,008
352	0,008
352,5	0,008
353	0,008
353,4	0,008
353,9	0,008
354,3	0,008
354,8	0,007
355,3	0,008
355,7	0,007
356,2	0,007
356,6	0,007
357,1	0,008
357,5	0,008
358	0,008
358,5	0,008
358,9	0,008
359,4	0,008
359,8	0,008
360,3	0,008
360,8	0,008
361,2	0,007
361,7	0,008
362,1	0,007
362,6	0,007
363	0,007
363,5	0,008
364	0,007
364,4	0,007
364,9	0,007
365,3	0,007
365,8	0,007
366,3	0,007
366,7	0,007
367,2	0,007
367,6	0,007
368,1	0,007
368,5	0,007
369	0,007
369,5	0,006
369,9	0,007
370,4	0,007
370,8	0,007
371,3	0,007
371,7	0,007
372,2	0,007
372,7	0,007
373,1	0,007
373,6	0,007
374	0,007
374,5	0,007
374,9	0,008
375,4	0,008
375,9	0,008
376,3	0,007
376,8	0,007
377,2	0,006
377,7	0,006
378,2	0,006
378,6	0,006
379,1	0,006
379,5	0,007
380	0,006
380,4	0,006
380,9	0,006
381,4	0,006
381,8	0,006
382,3	0,006
382,7	0,006
383,2	0,006
383,6	0,006
384,1	0,006
384,6	0,007
385	0,007
385,5	0,007
385,9	0,006
386,4	0,006
386,8	0,006
387,3	0,007
387,7	0,007
388,2	0,007
388,7	0,007
389,1	0,007
389,6	0,007
390	0,007
390,5	0,006
390,9	0,006
391,4	0,006
391,9	0,006
392,3	0,007
392,8	0,006
393,2	0,007
393,7	0,007
394,1	0,006
394,6	0,007
395,1	0,006
395,5	0,006
396	0,006
396,4	0,006
396,9	0,005
397,3	0,005
397,8	0,005
398,2	0,005
398,7	0,005
399,2	0,006
399,6	0,006
400,1	0,006
400,5	0,006
401	0,006
401,4	0,006
401,9	0,005
402,4	0,005
402,8	0,005
403,3	0,006
403,7	0,005
404,2	0,005
404,6	0,005
405,1	0,005
405,5	0,005
406	0,005
406,5	0,005
406,9	0,005
407,4	0,005
407,8	0,005
408,3	0,005
408,7	0,005
409,2	0,005
409,6	0,005
410,1	0,004
410,6	0,004
411	0,005
411,5	0,005
411,9	0,005
412,4	0,005
412,8	0,005
413,3	0,005
413,7	0,005
414,2	0,005
414,7	0,005
415,1	0,006
415,6	0,006
416	0,005
416,5	0,005
416,9	0,005
417,4	0,005
417,8	0,005
418,3	0,005
418,8	0,005
419,2	0,005
419,7	0,005
420,1	0,005
420,6	0,005
421	0,005
421,5	0,005
421,9	0,005
422,4	0,005
422,8	0,005
423,3	0,005
423,8	0,005
424,2	0,004
424,7	0,005
425,1	0,005
425,6	0,005
426	0,004
426,5	0,004
426,9	0,004
427,4	0,005
427,9	0,005
428,3	0,004
428,8	0,004
429,2	0,004
429,7	0,004
430,1	0,004
430,6	0,004
431	0,004
431,5	0,004
431,9	0,005
432,4	0,005
432,8	0,005
433,3	0,005
433,8	0,005
434,2	0,006
434,7	0,006
435,1	0,006
435,6	0,005
436	0,005
436,5	0,005
436,9	0,005
437,4	0,005
437,8	0,005
438,3	0,005
438,8	0,005
439,2	0,005
439,7	0,005
440,1	0,005
440,6	0,005
441	0,005
441,5	0,005
441,9	0,006
442,4	0,005
442,8	0,005
443,3	0,005
443,7	0,005
444,2	0,005
444,7	0,005
445,1	0,005
445,6	0,005
446	0,005
446,5	0,005
446,9	0,005
447,4	0,005
447,8	0,005
448,3	0,005
448,7	0,005
449,2	0,004
449,6	0,004
450,1	0,004
450,6	0,004
451	0,004
451,5	0,005
451,9	0,005
452,4	0,005
452,8	0,005
453,3	0,005
453,7	0,005
454,2	0,005
454,6	0,005
455,1	0,004
455,5	0,004
456	0,004
456,4	0,004
456,9	0,004
457,3	0,004
457,8	0,004
458,3	0,004
458,7	0,004
459,2	0,005
459,6	0,005
460,1	0,005
460,5	0,005
461	0,005
461,4	0,005
461,9	0,005
462,3	0,005
462,8	0,005
463,2	0,005
463,7	0,005
464,1	0,005
464,6	0,004
465	0,004
465,5	0,004
466	0,004
466,4	0,003
466,9	0,004
467,3	0,004
467,8	0,004
468,2	0,004
468,7	0,004
469,1	0,005
469,6	0,005
470	0,005
470,5	0,005
470,9	0,005
471,4	0,005
471,8	0,005
472,3	0,005
472,7	0,005
473,2	0,006
473,6	0,006
474,1	0,005
474,5	0,005
475	0,005
475,4	0,005
475,9	0,004
476,4	0,004
476,8	0,004
477,3	0,004
477,7	0,004
478,2	0,004
478,6	0,004
479,1	0,005
479,5	0,005
480	0,005
480,4	0,005
480,9	0,005
481,3	0,005
481,8	0,004
482,2	0,004
482,7	0,004
483,1	0,004
483,6	0,004
484	0,003
484,5	0,004
484,9	0,004
485,4	0,004
485,8	0,004
486,3	0,004
486,7	0,005
487,2	0,005
487,6	0,005
488,1	0,004
488,5	0,004
489	0,004
489,4	0,004
489,9	0,003
490,4	0,003
490,8	0,004
491,3	0,004
491,7	0,004
492,2	0,004
492,6	0,005
493,1	0,005
493,5	0,005
494	0,005
494,4	0,004
494,9	0,004
495,3	0,004
495,8	0,004
496,2	0,004
496,7	0,004
497,1	0,004
497,6	0,005
498	0,005
498,5	0,005
498,9	0,005
499,4	0,005
499,8	0,005
500,3	0,004
500,7	0,004
501,2	0,004
501,6	0,004
502,1	0,004
502,5	0,004
503	0,004
503,4	0,004
503,9	0,004
504,3	0,004
504,8	0,004
505,2	0,004
505,7	0,003
506,1	0,003
506,6	0,003
507	0,003
507,5	0,003
507,9	0,003
508,4	0,003
508,8	0,003
509,3	0,004
509,7	0,004
510,2	0,004
510,6	0,004
511,1	0,004
511,5	0,003
512	0,003
512,4	0,004
512,9	0,004
513,3	0,003
513,8	0,003
514,2	0,003
514,7	0,004
515,1	0,004
515,6	0,004
516	0,004
516,5	0,004
516,9	0,004
517,4	0,004
517,8	0,004
518,3	0,003
518,7	0,004
519,2	0,004
519,6	0,004
520,1	0,004
520,5	0,004
521	0,004
521,4	0,005
521,9	0,005
522,3	0,005
522,8	0,005
523,2	0,004
523,7	0,005
524,1	0,004
524,6	0,005
525	0,004
525,5	0,004
525,9	0,004
526,4	0,004
526,8	0,004
527,3	0,004
527,7	0,003
528,2	0,003
528,6	0,003
529,1	0,003
529,5	0,004
530	0,004
530,4	0,004
530,9	0,004
531,3	0,004
531,8	0,004
532,2	0,004
532,6	0,004
533,1	0,004
533,5	0,004
534	0,004
534,4	0,004
534,9	0,004
535,3	0,004
535,8	0,004
536,2	0,003
536,7	0,004
537,1	0,004
537,6	0,004
538	0,004
538,5	0,004
538,9	0,005
539,4	0,005
539,8	0,004
540,3	0,004
540,7	0,005
541,2	0,004
541,6	0,004
542,1	0,004
542,5	0,004
543	0,004
543,4	0,004
543,9	0,004
544,3	0,004
544,8	0,004
545,2	0,004
545,7	0,004
546,1	0,004
546,5	0,004
547	0,004
547,4	0,004
547,9	0,003
548,3	0,003
548,8	0,003
549,2	0,003
549,7	0,003
550,1	0,003
550,6	0,003
551	0,004
551,5	0,004
551,9	0,004
552,4	0,004
552,8	0,004
553,3	0,004
553,7	0,004
554,2	0,004
554,6	0,003
555,1	0,003
555,5	0,003
555,9	0,003
556,4	0,003
556,8	0,003
557,3	0,003
557,7	0,003
558,2	0,003
558,6	0,003
559,1	0,003
559,5	0,003
560	0,003
560,4	0,003
560,9	0,003
561,3	0,003
561,8	0,003
562,2	0,003
562,7	0,004
563,1	0,003
563,6	0,003
564	0,003
564,4	0,003
564,9	0,003
565,3	0,003
565,8	0,002
566,2	0,003
566,7	0,003
567,1	0,003
567,6	0,003
568	0,003
568,5	0,003
568,9	0,004
569,4	0,003
569,8	0,003
570,3	0,003
570,7	0,003
571,1	0,003
571,6	0,003
572	0,003
572,5	0,003
572,9	0,003
573,4	0,003
573,8	0,003
574,3	0,002
574,7	0,002
575,2	0,002
575,6	0,002
576,1	0,002
576,5	0,002
576,9	0,002
577,4	0,003
577,8	0,003
578,3	0,003
578,7	0,003
579,2	0,003
579,6	0,003
580,1	0,003
580,5	0,003
581	0,003
581,4	0,003
581,9	0,003
582,3	0,003
582,7	0,003
583,2	0,003
583,6	0,003
584,1	0,003
584,5	0,003
585	0,003
585,4	0,003
585,9	0,003
586,3	0,003
586,8	0,003
587,2	0,003
587,6	0,003
588,1	0,003
588,5	0,003
589	0,003
589,4	0,003
589,9	0,003
590,3	0,003
590,8	0,003
591,2	0,003
591,7	0,003
592,1	0,003
592,5	0,003
593	0,003
593,4	0,003
593,9	0,003
594,3	0,003
594,8	0,003
595,2	0,003
595,7	0,003
596,1	0,003
596,6	0,003
597	0,003
597,4	0,003
597,9	0,003
598,3	0,003
598,8	0,003
599,2	0,003
599,7	0,003
600,1	0,003
600,6	0,003
601	0,003
601,4	0,003
601,9	0,003
602,3	0,003
602,8	0,003
603,2	0,003
603,7	0,003
604,1	0,003
604,6	0,003
605	0,003
605,4	0,002
605,9	0,002
606,3	0,002
606,8	0,002
607,2	0,002
607,7	0,002
608,1	0,002
608,6	0,002
609	0,002
609,4	0,002
609,9	0,002
610,3	0,002
610,8	0,002
611,2	0,002
611,7	0,002
612,1	0,002
612,6	0,002
613	0,002
613,4	0,002
613,9	0,002
614,3	0,002
614,8	0,002
615,2	0,002
615,7	0,002
616,1	0,002
616,6	0,002
617	0,002
617,4	0,002
617,9	0,003
618,3	0,003
618,8	0,003
619,2	0,003
619,7	0,003
620,1	0,003
620,5	0,003
621	0,003
621,4	0,003
621,9	0,003
622,3	0,003
622,8	0,003
623,2	0,003
623,6	0,003
624,1	0,003
624,5	0,003
625	0,003
625,4	0,003
625,9	0,003
626,3	0,003
626,8	0,003
627,2	0,004
627,6	0,004
628,1	0,004
628,5	0,004
629	0,004
629,4	0,004
629,9	0,003
630,3	0,003
630,7	0,004
631,2	0,004
631,6	0,003
632,1	0,003
632,5	0,003
633	0,003
633,4	0,003
633,8	0,003
634,3	0,003
634,7	0,003
635,2	0,003
635,6	0,003
636,1	0,004
636,5	0,003
636,9	0,003
637,4	0,003
637,8	0,003
638,3	0,003
638,7	0,003
639,2	0,003
639,6	0,003
640	0,003
640,5	0,003
640,9	0,004
641,4	0,003
641,8	0,003
642,2	0,003
642,7	0,003
643,1	0,003
643,6	0,003
644	0,002
644,5	0,003
644,9	0,003
645,3	0,003
645,8	0,003
646,2	0,003
646,7	0,003
647,1	0,003
647,6	0,003
648	0,003
648,4	0,003
648,9	0,003
649,3	0,003
649,8	0,003
650,2	0,003
650,6	0,003
651,1	0,003
651,5	0,003
652	0,003
652,4	0,003
652,9	0,003
653,3	0,002
653,7	0,001
654,2	0,001
654,6	0
655,1	0
655,5	0,001
655,9	0,001
656,4	0,001
656,8	0,001
657,3	0,002
657,7	0,002
658,2	0,003
658,6	0,003
659	0,002
659,5	0,002
659,9	0,002
660,4	0,002
660,8	0,002
661,2	0,002
661,7	0,002
662,1	0,002
662,6	0,002
663	0,002
663,4	0,002
663,9	0,002
664,3	0,002
664,8	0,002
665,2	0,002
665,6	0,002
666,1	0,003
666,5	0,003
667	0,003
667,4	0,002
667,9	0,003
668,3	0,003
668,7	0,003
669,2	0,003
669,6	0,003
670,1	0,003
670,5	0,003
670,9	0,003
671,4	0,003
671,8	0,003
672,3	0,003
672,7	0,003
673,1	0,003
673,6	0,003
674	0,003
674,5	0,003
674,9	0,003
675,3	0,003
675,8	0,003
676,2	0,004
676,7	0,004
677,1	0,004
677,5	0,004
678	0,004
678,4	0,003
678,9	0,003
679,3	0,003
679,7	0,003
680,2	0,003
680,6	0,003
681,1	0,003
681,5	0,003
681,9	0,003
682,4	0,003
682,8	0,003
683,3	0,003
683,7	0,003
684,1	0,003
684,6	0,003
685	0,003
685,5	0,003
685,9	0,002
686,3	0,002
686,8	0,002
687,2	0,002
687,7	0,002
688,1	0,002
688,5	0,002
689	0,002
689,4	0,002
689,9	0,002
690,3	0,003
690,7	0,003
691,2	0,003
691,6	0,003
692	0,003
692,5	0,002
692,9	0,002
693,4	0,002
693,8	0,002
694,2	0,002
694,7	0,002
695,1	0,003
695,6	0,003
696	0,003
696,4	0,003
696,9	0,003
697,3	0,003
697,8	0,003
698,2	0,003
698,6	0,003
699,1	0,003
699,5	0,003
699,9	0,003
700,4	0,002
700,8	0,002
701,3	0,002
701,7	0,002
702,1	0,002
702,6	0,002
703	0,002
703,5	0,003
703,9	0,003
704,3	0,003
704,8	0,003
705,2	0,003
705,6	0,003
706,1	0,003
706,5	0,003
707	0,003
707,4	0,003
707,8	0,003
708,3	0,003
708,7	0,003
709,2	0,003
709,6	0,003
710	0,003
710,5	0,002
710,9	0,002
711,3	0,002
711,8	0,002
712,2	0,002
712,7	0,002
713,1	0,002
713,5	0,003
714	0,003
714,4	0,003
714,8	0,003
715,3	0,003
715,7	0,003
716,2	0,003
716,6	0,003
717	0,002
717,5	0,002
717,9	0,002
718,3	0,002
718,8	0,002
719,2	0,002
719,7	0,003
720,1	0,003
720,5	0,003
721	0,003
721,4	0,002
721,8	0,003
722,3	0,002
722,7	0,002
723,2	0,002
723,6	0,002
724	0,002
724,5	0,002
724,9	0,002
725,3	0,002
725,8	0,002
726,2	0,002
726,7	0,002
727,1	0,003
727,5	0,003
728	0,003
728,4	0,002
728,8	0,002
729,3	0,002
729,7	0,002
730,1	0,002
730,6	0,003
731	0,003
731,5	0,003
731,9	0,003
732,3	0,003
732,8	0,003
733,2	0,003
733,6	0,003
734,1	0,002
734,5	0,003
734,9	0,002
735,4	0,003
735,8	0,003
736,3	0,003
736,7	0,002
737,1	0,002
737,6	0,002
738	0,002
738,4	0,003
738,9	0,003
739,3	0,003
739,7	0,003
740,2	0,003
740,6	0,003
741,1	0,003
741,5	0,002
741,9	0,002
742,4	0,002
742,8	0,003
743,2	0,002
743,7	0,002
744,1	0,002
744,5	0,002
745	0,003
745,4	0,002
745,8	0,002
746,3	0,002
746,7	0,002
747,2	0,002
747,6	0,002
748	0,002
748,5	0,002
748,9	0,002
749,3	0,002
749,8	0,003
750,2	0,003
750,6	0,003
751,1	0,003
751,5	0,003
751,9	0,003
752,4	0,003
752,8	0,003
753,3	0,003
753,7	0,002
754,1	0,002
754,6	0,003
755	0,002
755,4	0,002
755,9	0,002
756,3	0,002
756,7	0,002
757,2	0,002
757,6	0,002
758	0,002
758,5	0,002
758,9	0,002
759,3	0,002
759,8	0,002
760,2	0,002
760,6	0,002
761,1	0,002
761,5	0,002
761,9	0,002
762,4	0,002
762,8	0,002
763,3	0,002
763,7	0,002
764,1	0,002
764,6	0,002
765	0,002
765,4	0,003
765,9	0,002
766,3	0,003
766,7	0,003
767,2	0,003
767,6	0,003
768	0,003
768,5	0,003
768,9	0,003
769,3	0,003
769,8	0,003
770,2	0,002
770,6	0,003
771,1	0,003
771,5	0,003
771,9	0,002
772,4	0,003
772,8	0,003
773,2	0,003
773,7	0,003
774,1	0,003
774,5	0,002
775	0,002
775,4	0,002
775,8	0,002
776,3	0,002
776,7	0,002
777,1	0,001
777,6	0,001
778	0,001
778,4	0,001
778,9	0,001
779,3	0,002
779,7	0,001
780,2	0,001
780,6	0,002
781	0,002
781,5	0,002
781,9	0,002
782,3	0,001
782,8	0,002
783,2	0,002
783,6	0,001
784,1	0,001
784,5	0,002
784,9	0,001
785,4	0,001
785,8	0,002
786,2	0,002
786,7	0,002
787,1	0,002
787,5	0,002
788	0,003
788,4	0,003
788,8	0,003
789,3	0,003
789,7	0,003
790,1	0,003
790,6	0,003
791	0,002
791,4	0,002
791,9	0,002
792,3	0,002
792,7	0,003
793,2	0,003
793,6	0,003
794	0,003
794,5	0,003
794,9	0,003
795,3	0,003
795,8	0,003
796,2	0,003
796,6	0,003
797,1	0,002
797,5	0,002
797,9	0,002
798,4	0,002
798,8	0,002
799,2	0,002
799,7	0,002
800,1	0,002
800,5	0,002
801	0,002
801,4	0,003
801,8	0,003
802,2	0,003
802,7	0,003
803,1	0,003
803,5	0,003
804	0,002
804,4	0,002
804,8	0,002
805,3	0,002
805,7	0,002
806,1	0,002
806,6	0,002
807	0,002
807,4	0,002
807,9	0,003
808,3	0,003
808,7	0,003
809,2	0,003
809,6	0,004
810	0,004
810,4	0,004
810,9	0,004
811,3	0,004
811,7	0,004
812,2	0,004
812,6	0,003
813	0,003
813,5	0,002
813,9	0,002
814,3	0,002
814,8	0,002
815,2	0,002
815,6	0,002
816,1	0,002
816,5	0,002
816,9	0,002
817,3	0,002
817,8	0,002
818,2	0,002
818,6	0,002
819,1	0,002
819,5	0,002
819,9	0,002
820,4	0,002
820,8	0,002
821,2	0,002
821,7	0,002
822,1	0,002
822,5	0,002
822,9	0,002
823,4	0,002
823,8	0,003
824,2	0,003
824,7	0,003
825,1	0,003
825,5	0,003
826	0,003
826,4	0,002
826,8	0,002
827,3	0,002
827,7	0,002
828,1	0,002
828,5	0,002
829	0,002
829,4	0,002
829,8	0,002
830,3	0,002
830,7	0,002
831,1	0,002
831,6	0,002
832	0,002
832,4	0,003
832,8	0,003
833,3	0,003
833,7	0,003
834,1	0,003
834,6	0,003
835	0,003
835,4	0,002
835,8	0,002
836,3	0,002
836,7	0,002
837,1	0,002
837,6	0,002
838	0,002
838,4	0,002
838,9	0,002
839,3	0,001
839,7	0,001
840,1	0,002
840,6	0,002
841	0,002
841,4	0,002
841,9	0,002
842,3	0,002
842,7	0,002
843,1	0,002
843,6	0,003
844	0,003
844,4	0,003
844,9	0,003
845,3	0,002
845,7	0,002
846,2	0,002
846,6	0,002
847	0,002
847,4	0,002
847,9	0,001
848,3	0,002
848,7	0,002
849,2	0,001
849,6	0,001
850	0,001
850,4	0,001
850,9	0,001
851,3	0,001
851,7	0,002
852,2	0,002
852,6	0,002
853	0,002
853,4	0,002
853,9	0,003
854,3	0,003
854,7	0,003
855,2	0,002
855,6	0,003
856	0,003
856,4	0,003
856,9	0,003
857,3	0,003
857,7	0,003
858,2	0,003
858,6	0,002
859	0,003
859,4	0,003
859,9	0,002
860,3	0,003
860,7	0,002
861,1	0,002
861,6	0,002
862	0,002
862,4	0,001
862,9	0,001
863,3	0,001
863,7	0,002
864,1	0,002
864,6	0,002
865	0,002
865,4	0,003
865,9	0,002
866,3	0,002
866,7	0,002
867,1	0,002
867,6	0,002
868	0,002
868,4	0,002
868,8	0,003
869,3	0,003
869,7	0,003
870,1	0,003
870,6	0,003
871	0,003
871,4	0,002
871,8	0,002
872,3	0,002
872,7	0,002
873,1	0,002
873,5	0,002
874	0,002
874,4	0,002
874,8	0,002
875,3	0,002
875,7	0,002
876,1	0,001
876,5	0,001
877	0,001
877,4	0,001
877,8	0,001
878,2	0,001
878,7	0,002
879,1	0,002
879,5	0,002
879,9	0,002
880,4	0,003
880,8	0,003
881,2	0,003
881,7	0,003
882,1	0,003
882,5	0,003
882,9	0,003
883,4	0,003
883,8	0,003
884,2	0,003
884,6	0,003
885,1	0,003
885,5	0,003
885,9	0,002
886,3	0,002
886,8	0,002
887,2	0,003
887,6	0,003
888	0,003
888,5	0,003
888,9	0,003
889,3	0,003
889,8	0,003
890,2	0,003
890,6	0,003
891	0,004
891,5	0,004
891,9	0,004
892,3	0,003
892,7	0,003
893,2	0,003
893,6	0,003
894	0,003
894,4	0,003
894,9	0,003
895,3	0,003
895,7	0,003
896,1	0,002
896,6	0,002
897	0,002
897,4	0,001
897,8	0,002
898,3	0,002
898,7	0,001
899,1	0,001
899,5	0,001
900	0,001
900,4	0,002
900,8	0,002
901,2	0,002
901,7	0,002
902,1	0,002
902,5	0,002
902,9	0,003
903,4	0,003
903,8	0,003
904,2	0,003
904,6	0,002
905,1	0,002
905,5	0,002
905,9	0,002
906,3	0,002
906,8	0,002
907,2	0,002
907,6	0,002
908	0,002
908,5	0,003
908,9	0,003
909,3	0,003
909,7	0,003
910,2	0,003
910,6	0,003
911	0,003
911,4	0,002
911,9	0,002
912,3	0,003
912,7	0,003
913,1	0,003
913,6	0,003
914	0,003
914,4	0,003
914,8	0,002
915,3	0,002
915,7	0,002
916,1	0,002
916,5	0,002
916,9	0,001
917,4	0,001
917,8	0,001
918,2	0,001
918,6	0,001
919,1	0,001
919,5	0,001
919,9	0,001
920,3	0,002
920,8	0,002
921,2	0,002
921,6	0,003
922	0,003
922,5	0,004
922,9	0,004
923,3	0,004
923,7	0,004
924,2	0,003
924,6	0,003
925	0,002
925,4	0,002
925,8	0,002
926,3	0,002
926,7	0,002
927,1	0,002
927,5	0,003
928	0,003
928,4	0,003
928,8	0,003
929,2	0,003
929,7	0,004
930,1	0,004
930,5	0,004
930,9	0,004
931,3	0,004
931,8	0,004
932,2	0,003
932,6	0,003
933	0,003
933,5	0,003
933,9	0,003
934,3	0,003
934,7	0,003
935,2	0,003
935,6	0,003
936	0,002
936,4	0,002
936,8	0,002
937,3	0,002
937,7	0,002
938,1	0,003
938,5	0,002
939	0,003
939,4	0,003
939,8	0,003
940,2	0,003
940,6	0,003
941,1	0,003
941,5	0,003
941,9	0,003
942,3	0,002
942,8	0,003
943,2	0,003
943,6	0,003
944	0,002
944,4	0,002
944,9	0,002
945,3	0,003
945,7	0,003
946,1	0,003
946,6	0,003
947	0,003
947,4	0,003
947,8	0,003
948,2	0,003
948,7	0,003
949,1	0,003
949,5	0,003
949,9	0,004
950,3	0,003
950,8	0,003
951,2	0,003
951,6	0,003
952	0,002
952,5	0,003
952,9	0,002
953,3	0,003
953,7	0,003
954,1	0,003
954,6	0,003
955	0,003
955,4	0,003
955,8	0,003
956,2	0,002
956,7	0,002
957,1	0,002
957,5	0,002
957,9	0,002
958,3	0,002
958,8	0,002
959,2	0,002
959,6	0,002
960	0,002
960,5	0,002
960,9	0,002
961,3	0,003
961,7	0,003
962,1	0,003
962,6	0,004
963	0,004
963,4	0,004
963,8	0,004
964,2	0,004
964,7	0,004
965,1	0,004
965,5	0,004
965,9	0,004
966,3	0,004
966,8	0,004
967,2	0,004
967,6	0,004
968	0,004
968,4	0,004
968,9	0,004
969,3	0,004
969,7	0,004
970,1	0,004
970,5	0,004
971	0,004
971,4	0,004
971,8	0,003
972,2	0,003
972,6	0,003
973,1	0,003
973,5	0,003
973,9	0,002
974,3	0,002
974,7	0,002
975,2	0,002
975,6	0,002
976	0,002
976,4	0,001
976,8	0,002
977,3	0,001
977,7	0,001
978,1	0,001
978,5	0,001
978,9	0,001
979,4	0,001
979,8	0,001
980,2	0,002
980,6	0,002
981	0,002
981,5	0,002
981,9	0,002
982,3	0,002
982,7	0,002
983,1	0,001
983,6	0,001
984	0,001
984,4	0,001
984,8	0,001
985,2	0,001
985,6	0
986,1	0,001
986,5	0,002
986,9	0,002
987,3	0,003
987,7	0,003
988,2	0,003
988,6	0,004
989	0,003
989,4	0,002
989,8	0,002
990,3	0,002
990,7	0,002
991,1	0,001
991,5	0,001
991,9	0,001
992,3	0,002
992,8	0,002
993,2	0,002
993,6	0,002
994	0,002
994,4	0,002
994,9	0,002
995,3	0,002
995,7	0,002
996,1	0,002
996,5	0,002
996,9	0,002
997,4	0,003
997,8	0,003
998,2	0,003
998,6	0,003
999	0,003
999,5	0,003
999,9	0,003
1000,3	0,003
1000,7	0,003
1001,1	0,003
1001,5	0,003
1002	0,004
1002,4	0,004
1002,8	0,004
1003,2	0,004
1003,6	0,003
1004	0,003
1004,5	0,003
1004,9	0,003
1005,3	0,003
1005,7	0,003
1006,1	0,003
1006,6	0,003
1007	0,002
1007,4	0,002
1007,8	0,002
1008,2	0,001
1008,6	0,001
1009,1	0,001
1009,5	0,001
1009,9	0,001
1010,3	0,001
1010,7	0,001
1011,1	0,002
1011,6	0,002
1012	0,002
1012,4	0,002
1012,8	0,003
1013,2	0,003
1013,6	0,003
1014,1	0,003
1014,5	0,003
1014,9	0,003
1015,3	0,004
1015,7	0,004
1016,1	0,004
1016,6	0,003
1017	0,003
1017,4	0,003
1017,8	0,003
1018,2	0,002
1018,6	0,002
1019,1	0,002
1019,5	0,002
1019,9	0,001
1020,3	0
1020,7	-0
1021,1	0
1021,6	0
1022	0
1022,4	0,001
1022,8	0,002
1023,2	0,003
1023,6	0,004
1024,1	0,004
1024,5	0,004
1024,9	0,004
1025,3	0,003
1025,7	0,003
1026,1	0,002
1026,6	0,002
1027	0,001
1027,4	0,001
1027,8	0,001
1028,2	0,001
1028,6	0,001
1029	0,001
1029,5	0,001
1029,9	0,001
1030,3	0,001
1030,7	0
1031,1	-0
1031,5	-0
1032	-0
1032,4	-0,001
1032,8	-0
1033,2	0
1033,6	-0
1034	0
1034,4	0
1034,9	0,001
1035,3	0,001
1035,7	0,001
1036,1	0,001
1036,5	0,002
1036,9	0,001
1037,4	0,001
1037,8	0,001
1038,2	0,002
1038,6	0,001
1039	0,001
1039,4	0,001
1039,8	0,001
1040,3	0,002
1040,7	0,001
1041,1	0,001
1041,5	0,001
1041,9	0,001
1042,3	0,002
1042,7	0,002
1043,2	0,001
1043,6	0,002
1044	0,002
1044,4	0,002
1044,8	0,001
1045,2	0
1045,6	0
1046,1	0,001
1046,5	0,001
1046,9	0,001
1047,3	0,001
1047,7	0
1048,1	-0
1048,5	0
1049	0,001
1049,4	0
1049,8	0
1050,2	-0
1050,6	0,001
1051	0,002
1051,4	0,003
1051,9	0,003
1052,3	0,004
1052,7	0,003
1053,1	0,004
1053,5	0,004
1053,9	0,004
1054,3	0,003
1054,8	0,002
1055,2	0,003
1055,6	0,002
1056	0,002
1056,4	0,002
1056,8	0,002
1057,2	0,003
1057,6	0,002
1058,1	0,002
1058,5	0,002
1058,9	0,001
1059,3	0,002
1059,7	0,002
1060,1	0,001
1060,5	0,001
1061	0,001
1061,4	0,001
1061,8	0,002
1062,2	0,002
1062,6	0,001
1063	0,002
1063,4	0,002
1063,8	0,002
1064,3	0,002
1064,7	0
1065,1	-0
1065,5	-0,001
1065,9	-0,001
1066,3	-0
1066,7	-0
1067,1	0
1067,6	0,002
1068	0,001
1068,4	0,002
1068,8	0,001
1069,2	0,001
1069,6	0,002
1070	0,001
1070,4	0,002
1070,9	0,002
1071,3	0,002
1071,7	0,003
1072,1	0,003
1072,5	0,002
1072,9	0,002
1073,3	0,001
1073,7	0
1074,2	0,001
1074,6	0
1075	-0
1075,4	-0,001
1075,8	0
1076,2	0
1076,6	-0
1077	-0
1077,5	-0
1077,9	0,001
1078,3	0,001
1078,7	0,002
1079,1	0,002
1079,5	0,002
1079,9	0,002
1080,3	0,002
1080,7	0,002
1081,2	0,003
1081,6	0,002
1082	0,003
1082,4	0,006
1082,8	0,003
1083,2	0,005
1083,6	0,003
1084	0,001
1084,5	0
1084,9	0,001
1085,3	-0,001
1085,7	0,001
1086,1	-0
1086,5	-0
1086,9	-0
1087,3	0,001
1087,7	-0,001
1088,2	0,001
1088,6	0,001
1089	0,002
1089,4	0,003
1089,8	0,005
1090,2	0,007
1090,6	0,006
1091	0,006
1091,4	0,003
1091,9	0,001
1092,3	0,003
1092,7	0,004
1093,1	0,003
1093,5	0,002
1093,9	0,003
1094,3	0,003
1094,7	0,001
1095,1	-0
1095,5	-0,005
1096	-0,002
1096,4	-0,005
1096,8	-0,012
1097,2	-0,008
1097,6	-0,005
1098	-0,007
1098,4	-0,001
1098,8	-0,005
1099,2	-0
1099,6	0,012
1100,1	0,015
1100,5	0,013
1100,9	0,01
1101,3	0,007
1101,7	0,007
1102,1	0,006
1102,5	-0,012
1102,9	-0,019
1103,3	-0,025
1103,7	-0,018
1104,2	-0,02
1104,6	-0,02
1105	-0,023
1105,4	-0,007
1105,8	0,002
1106,2	0,009
1106,6	0,013
1107	0,018
1107,4	0,031
1107,8	0,067
1108,3	-0
