Data from Absorbance_232.txt Node
Date: Fri Nov 13 21:29:15 MSK 2020
User: vat
Spectrometer: MAYP114033
Trigger mode: 0
Integration Time (sec): 8,000000E-3
Scans to average: 10
Electric dark correction enabled: true
Nonlinearity correction enabled: false
Boxcar width: 3
XAxis mode: Wavelengths
Number of Pixels in Spectrum: 2068
>>>>>Begin Spectral Data<<<<<
199,4	-0,686
199,9	-0
200,4	0,752
200,8	0,365
201,3	0,175
201,8	0,172
202,2	0,166
202,7	0,174
203,2	0,15
203,6	0,139
204,1	0,153
204,6	0,144
205	0,133
205,5	0,145
206	0,128
206,4	0,154
206,9	0,153
207,4	0,149
207,8	0,15
208,3	0,156
208,8	0,164
209,2	0,179
209,7	0,159
210,2	0,159
210,6	0,143
211,1	0,148
211,5	0,157
212	0,148
212,5	0,155
212,9	0,158
213,4	0,157
213,9	0,161
214,3	0,173
214,8	0,164
215,3	0,16
215,7	0,149
216,2	0,151
216,7	0,162
217,1	0,193
217,6	0,181
218,1	0,198
218,5	0,204
219	0,228
219,5	0,233
219,9	0,253
220,4	0,231
220,9	0,224
221,3	0,204
221,8	0,193
222,3	0,178
222,7	0,168
223,2	0,163
223,6	0,175
224,1	0,192
224,6	0,192
225	0,193
225,5	0,181
226	0,182
226,4	0,169
226,9	0,156
227,4	0,161
227,8	0,178
228,3	0,184
228,8	0,181
229,2	0,194
229,7	0,19
230,2	0,194
230,6	0,183
231,1	0,185
231,5	0,199
232	0,221
232,5	0,223
232,9	0,219
233,4	0,224
233,9	0,23
234,3	0,232
234,8	0,226
235,3	0,224
235,7	0,214
236,2	0,221
236,7	0,21
237,1	0,218
237,6	0,22
238,1	0,219
238,5	0,223
239	0,23
239,4	0,243
239,9	0,266
240,4	0,278
240,8	0,269
241,3	0,279
241,8	0,274
242,2	0,281
242,7	0,284
243,2	0,294
243,6	0,288
244,1	0,293
244,6	0,303
245	0,318
245,5	0,324
245,9	0,34
246,4	0,337
246,9	0,351
247,3	0,378
247,8	0,377
248,3	0,388
248,7	0,388
249,2	0,385
249,7	0,39
250,1	0,38
250,6	0,364
251	0,371
251,5	0,367
252	0,372
252,4	0,376
252,9	0,38
253,4	0,387
253,8	0,397
254,3	0,404
254,8	0,412
255,2	0,422
255,7	0,43
256,1	0,439
256,6	0,448
257,1	0,46
257,5	0,47
258	0,481
258,5	0,494
258,9	0,506
259,4	0,52
259,9	0,534
260,3	0,549
260,8	0,563
261,2	0,579
261,7	0,594
262,2	0,609
262,6	0,624
263,1	0,642
263,6	0,657
264	0,674
264,5	0,69
264,9	0,708
265,4	0,726
265,9	0,743
266,3	0,761
266,8	0,778
267,3	0,795
267,7	0,813
268,2	0,831
268,7	0,848
269,1	0,868
269,6	0,885
270	0,903
270,5	0,921
271	0,939
271,4	0,956
271,9	0,972
272,4	0,989
272,8	1,005
273,3	1,02
273,7	1,036
274,2	1,05
274,7	1,065
275,1	1,08
275,6	1,092
276,1	1,105
276,5	1,117
277	1,128
277,4	1,14
277,9	1,15
278,4	1,159
278,8	1,168
279,3	1,176
279,8	1,184
280,2	1,192
280,7	1,196
281,1	1,201
281,6	1,205
282,1	1,208
282,5	1,209
283	1,21
283,4	1,208
283,9	1,205
284,4	1,202
284,8	1,199
285,3	1,194
285,8	1,189
286,2	1,182
286,7	1,173
287,1	1,163
287,6	1,152
288,1	1,139
288,5	1,126
289	1,11
289,5	1,094
289,9	1,078
290,4	1,062
290,8	1,046
291,3	1,028
291,8	1,011
292,2	0,991
292,7	0,97
293,1	0,948
293,6	0,926
294,1	0,903
294,5	0,88
295	0,857
295,5	0,833
295,9	0,809
296,4	0,785
296,8	0,76
297,3	0,735
297,8	0,709
298,2	0,684
298,7	0,661
299,1	0,637
299,6	0,613
300,1	0,59
300,5	0,567
301	0,545
301,5	0,522
301,9	0,499
302,4	0,478
302,8	0,457
303,3	0,436
303,8	0,417
304,2	0,398
304,7	0,379
305,1	0,362
305,6	0,345
306,1	0,329
306,5	0,313
307	0,298
307,4	0,284
307,9	0,271
308,4	0,257
308,8	0,245
309,3	0,233
309,8	0,222
310,2	0,211
310,7	0,201
311,1	0,192
311,6	0,183
312,1	0,174
312,5	0,166
313	0,159
313,4	0,152
313,9	0,145
314,4	0,139
314,8	0,133
315,3	0,128
315,7	0,123
316,2	0,118
316,7	0,114
317,1	0,11
317,6	0,107
318	0,104
318,5	0,099
319	0,096
319,4	0,093
319,9	0,091
320,3	0,088
320,8	0,086
321,3	0,083
321,7	0,082
322,2	0,08
322,6	0,079
323,1	0,077
323,6	0,076
324	0,074
324,5	0,073
324,9	0,072
325,4	0,071
325,9	0,07
326,3	0,07
326,8	0,068
327,2	0,067
327,7	0,067
328,2	0,066
328,6	0,065
329,1	0,064
329,5	0,063
330	0,063
330,5	0,063
330,9	0,062
331,4	0,062
331,8	0,061
332,3	0,061
332,8	0,061
333,2	0,06
333,7	0,059
334,1	0,059
334,6	0,058
335,1	0,058
335,5	0,058
336	0,058
336,4	0,058
336,9	0,058
337,4	0,057
337,8	0,057
338,3	0,057
338,7	0,057
339,2	0,057
339,7	0,056
340,1	0,056
340,6	0,056
341	0,055
341,5	0,055
342	0,055
342,4	0,054
342,9	0,054
343,3	0,054
343,8	0,054
344,2	0,053
344,7	0,053
345,2	0,053
345,6	0,053
346,1	0,053
346,5	0,053
347	0,053
347,5	0,053
347,9	0,053
348,4	0,053
348,8	0,053
349,3	0,052
349,8	0,052
350,2	0,052
350,7	0,052
351,1	0,052
351,6	0,052
352	0,052
352,5	0,051
353	0,051
353,4	0,051
353,9	0,051
354,3	0,05
354,8	0,05
355,3	0,05
355,7	0,049
356,2	0,049
356,6	0,049
357,1	0,049
357,5	0,049
358	0,049
358,5	0,049
358,9	0,049
359,4	0,049
359,8	0,049
360,3	0,049
360,8	0,049
361,2	0,048
361,7	0,048
362,1	0,048
362,6	0,048
363	0,048
363,5	0,048
364	0,047
364,4	0,048
364,9	0,048
365,3	0,047
365,8	0,047
366,3	0,047
366,7	0,046
367,2	0,047
367,6	0,047
368,1	0,046
368,5	0,046
369	0,046
369,5	0,046
369,9	0,046
370,4	0,045
370,8	0,045
371,3	0,045
371,7	0,044
372,2	0,045
372,7	0,045
373,1	0,044
373,6	0,045
374	0,044
374,5	0,044
374,9	0,044
375,4	0,043
375,9	0,043
376,3	0,043
376,8	0,043
377,2	0,042
377,7	0,042
378,2	0,042
378,6	0,041
379,1	0,041
379,5	0,041
380	0,041
380,4	0,041
380,9	0,041
381,4	0,041
381,8	0,041
382,3	0,041
382,7	0,041
383,2	0,041
383,6	0,041
384,1	0,041
384,6	0,041
385	0,04
385,5	0,041
385,9	0,04
386,4	0,04
386,8	0,04
387,3	0,04
387,7	0,04
388,2	0,04
388,7	0,039
389,1	0,04
389,6	0,039
390	0,039
390,5	0,039
390,9	0,039
391,4	0,039
391,9	0,039
392,3	0,039
392,8	0,039
393,2	0,039
393,7	0,038
394,1	0,038
394,6	0,038
395,1	0,038
395,5	0,038
396	0,038
396,4	0,038
396,9	0,038
397,3	0,038
397,8	0,037
398,2	0,037
398,7	0,037
399,2	0,037
399,6	0,037
400,1	0,037
400,5	0,037
401	0,037
401,4	0,037
401,9	0,038
402,4	0,038
402,8	0,038
403,3	0,038
403,7	0,038
404,2	0,037
404,6	0,037
405,1	0,036
405,5	0,036
406	0,036
406,5	0,036
406,9	0,036
407,4	0,037
407,8	0,036
408,3	0,036
408,7	0,036
409,2	0,036
409,6	0,035
410,1	0,035
410,6	0,035
411	0,035
411,5	0,035
411,9	0,035
412,4	0,035
412,8	0,035
413,3	0,035
413,7	0,035
414,2	0,035
414,7	0,035
415,1	0,035
415,6	0,035
416	0,035
416,5	0,035
416,9	0,035
417,4	0,035
417,8	0,035
418,3	0,036
418,8	0,036
419,2	0,036
419,7	0,036
420,1	0,035
420,6	0,035
421	0,035
421,5	0,034
421,9	0,034
422,4	0,034
422,8	0,034
423,3	0,034
423,8	0,034
424,2	0,034
424,7	0,034
425,1	0,034
425,6	0,034
426	0,034
426,5	0,034
426,9	0,034
427,4	0,034
427,9	0,034
428,3	0,034
428,8	0,033
429,2	0,033
429,7	0,033
430,1	0,032
430,6	0,032
431	0,032
431,5	0,032
431,9	0,032
432,4	0,032
432,8	0,032
433,3	0,032
433,8	0,032
434,2	0,032
434,7	0,032
435,1	0,032
435,6	0,032
436	0,032
436,5	0,032
436,9	0,033
437,4	0,033
437,8	0,033
438,3	0,033
438,8	0,032
439,2	0,032
439,7	0,031
440,1	0,031
440,6	0,031
441	0,031
441,5	0,031
441,9	0,031
442,4	0,031
442,8	0,031
443,3	0,031
443,7	0,032
444,2	0,032
444,7	0,032
445,1	0,033
445,6	0,033
446	0,033
446,5	0,033
446,9	0,032
447,4	0,032
447,8	0,032
448,3	0,031
448,7	0,032
449,2	0,032
449,6	0,032
450,1	0,031
450,6	0,031
451	0,031
451,5	0,031
451,9	0,031
452,4	0,031
452,8	0,031
453,3	0,031
453,7	0,03
454,2	0,03
454,6	0,03
455,1	0,03
455,5	0,03
456	0,03
456,4	0,03
456,9	0,031
457,3	0,031
457,8	0,03
458,3	0,03
458,7	0,029
459,2	0,029
459,6	0,029
460,1	0,029
460,5	0,029
461	0,029
461,4	0,03
461,9	0,03
462,3	0,03
462,8	0,03
463,2	0,03
463,7	0,03
464,1	0,029
464,6	0,029
465	0,029
465,5	0,029
466	0,029
466,4	0,029
466,9	0,029
467,3	0,029
467,8	0,029
468,2	0,028
468,7	0,028
469,1	0,029
469,6	0,029
470	0,029
470,5	0,029
470,9	0,029
471,4	0,03
471,8	0,03
472,3	0,03
472,7	0,031
473,2	0,031
473,6	0,03
474,1	0,03
474,5	0,03
475	0,029
475,4	0,029
475,9	0,029
476,4	0,029
476,8	0,029
477,3	0,028
477,7	0,028
478,2	0,029
478,6	0,029
479,1	0,029
479,5	0,029
480	0,029
480,4	0,029
480,9	0,029
481,3	0,029
481,8	0,028
482,2	0,028
482,7	0,029
483,1	0,03
483,6	0,03
484	0,031
484,5	0,03
484,9	0,029
485,4	0,028
485,8	0,027
486,3	0,026
486,7	0,025
487,2	0,025
487,6	0,024
488,1	0,025
488,5	0,025
489	0,026
489,4	0,026
489,9	0,027
490,4	0,027
490,8	0,026
491,3	0,027
491,7	0,027
492,2	0,026
492,6	0,026
493,1	0,026
493,5	0,026
494	0,026
494,4	0,026
494,9	0,026
495,3	0,026
495,8	0,026
496,2	0,026
496,7	0,026
497,1	0,026
497,6	0,026
498	0,026
498,5	0,026
498,9	0,027
499,4	0,026
499,8	0,026
500,3	0,026
500,7	0,027
501,2	0,027
501,6	0,026
502,1	0,026
502,5	0,027
503	0,026
503,4	0,026
503,9	0,026
504,3	0,026
504,8	0,026
505,2	0,026
505,7	0,025
506,1	0,025
506,6	0,025
507	0,025
507,5	0,025
507,9	0,026
508,4	0,025
508,8	0,025
509,3	0,025
509,7	0,026
510,2	0,026
510,6	0,026
511,1	0,025
511,5	0,025
512	0,025
512,4	0,025
512,9	0,025
513,3	0,025
513,8	0,025
514,2	0,025
514,7	0,025
515,1	0,025
515,6	0,025
516	0,025
516,5	0,025
516,9	0,025
517,4	0,025
517,8	0,025
518,3	0,025
518,7	0,025
519,2	0,025
519,6	0,025
520,1	0,024
520,5	0,024
521	0,024
521,4	0,024
521,9	0,024
522,3	0,024
522,8	0,025
523,2	0,025
523,7	0,025
524,1	0,025
524,6	0,025
525	0,024
525,5	0,024
525,9	0,024
526,4	0,023
526,8	0,023
527,3	0,024
527,7	0,024
528,2	0,023
528,6	0,023
529,1	0,024
529,5	0,024
530	0,024
530,4	0,024
530,9	0,023
531,3	0,024
531,8	0,024
532,2	0,023
532,6	0,023
533,1	0,023
533,5	0,023
534	0,023
534,4	0,023
534,9	0,023
535,3	0,023
535,8	0,023
536,2	0,023
536,7	0,023
537,1	0,023
537,6	0,022
538	0,022
538,5	0,022
538,9	0,022
539,4	0,021
539,8	0,022
540,3	0,022
540,7	0,022
541,2	0,022
541,6	0,022
542,1	0,022
542,5	0,022
543	0,021
543,4	0,021
543,9	0,021
544,3	0,021
544,8	0,02
545,2	0,02
545,7	0,021
546,1	0,022
546,5	0,022
547	0,022
547,4	0,022
547,9	0,023
548,3	0,022
548,8	0,022
549,2	0,022
549,7	0,021
550,1	0,021
550,6	0,021
551	0,021
551,5	0,021
551,9	0,021
552,4	0,02
552,8	0,021
553,3	0,021
553,7	0,021
554,2	0,021
554,6	0,021
555,1	0,02
555,5	0,021
555,9	0,02
556,4	0,02
556,8	0,02
557,3	0,02
557,7	0,02
558,2	0,02
558,6	0,02
559,1	0,02
559,5	0,02
560	0,021
560,4	0,02
560,9	0,02
561,3	0,02
561,8	0,021
562,2	0,02
562,7	0,02
563,1	0,02
563,6	0,02
564	0,02
564,4	0,02
564,9	0,02
565,3	0,02
565,8	0,02
566,2	0,02
566,7	0,02
567,1	0,021
567,6	0,021
568	0,021
568,5	0,02
568,9	0,02
569,4	0,02
569,8	0,02
570,3	0,02
570,7	0,019
571,1	0,019
571,6	0,019
572	0,02
572,5	0,019
572,9	0,019
573,4	0,019
573,8	0,019
574,3	0,019
574,7	0,019
575,2	0,019
575,6	0,019
576,1	0,019
576,5	0,019
576,9	0,019
577,4	0,019
577,8	0,019
578,3	0,019
578,7	0,019
579,2	0,019
579,6	0,019
580,1	0,02
580,5	0,019
581	0,019
581,4	0,018
581,9	0,018
582,3	0,018
582,7	0,017
583,2	0,017
583,6	0,017
584,1	0,017
584,5	0,018
585	0,017
585,4	0,018
585,9	0,017
586,3	0,017
586,8	0,017
587,2	0,017
587,6	0,018
588,1	0,018
588,5	0,017
589	0,017
589,4	0,017
589,9	0,018
590,3	0,018
590,8	0,018
591,2	0,018
591,7	0,018
592,1	0,018
592,5	0,018
593	0,018
593,4	0,018
593,9	0,018
594,3	0,017
594,8	0,017
595,2	0,017
595,7	0,017
596,1	0,017
596,6	0,017
597	0,017
597,4	0,017
597,9	0,018
598,3	0,017
598,8	0,017
599,2	0,017
599,7	0,017
600,1	0,016
600,6	0,016
601	0,016
601,4	0,016
601,9	0,017
602,3	0,016
602,8	0,016
603,2	0,016
603,7	0,016
604,1	0,016
604,6	0,016
605	0,016
605,4	0,016
605,9	0,016
606,3	0,016
606,8	0,017
607,2	0,017
607,7	0,017
608,1	0,017
608,6	0,017
609	0,017
609,4	0,017
609,9	0,017
610,3	0,017
610,8	0,017
611,2	0,017
611,7	0,017
612,1	0,017
612,6	0,017
613	0,016
613,4	0,016
613,9	0,016
614,3	0,016
614,8	0,016
615,2	0,016
615,7	0,016
616,1	0,016
616,6	0,017
617	0,016
617,4	0,016
617,9	0,017
618,3	0,017
618,8	0,017
619,2	0,016
619,7	0,016
620,1	0,016
620,5	0,016
621	0,016
621,4	0,016
621,9	0,015
622,3	0,015
622,8	0,015
623,2	0,014
623,6	0,014
624,1	0,015
624,5	0,015
625	0,015
625,4	0,015
625,9	0,016
626,3	0,016
626,8	0,016
627,2	0,016
627,6	0,016
628,1	0,016
628,5	0,016
629	0,016
629,4	0,016
629,9	0,016
630,3	0,016
630,7	0,016
631,2	0,016
631,6	0,016
632,1	0,015
632,5	0,015
633	0,016
633,4	0,016
633,8	0,016
634,3	0,016
634,7	0,016
635,2	0,016
635,6	0,016
636,1	0,016
636,5	0,016
636,9	0,016
637,4	0,016
637,8	0,016
638,3	0,016
638,7	0,016
639,2	0,015
639,6	0,016
640	0,016
640,5	0,016
640,9	0,016
641,4	0,016
641,8	0,016
642,2	0,016
642,7	0,016
643,1	0,016
643,6	0,016
644	0,016
644,5	0,015
644,9	0,015
645,3	0,015
645,8	0,015
646,2	0,014
646,7	0,014
647,1	0,015
647,6	0,015
648	0,015
648,4	0,015
648,9	0,015
649,3	0,016
649,8	0,016
650,2	0,016
650,6	0,016
651,1	0,016
651,5	0,016
652	0,016
652,4	0,016
652,9	0,016
653,3	0,018
653,7	0,024
654,2	0,016
654,6	0,011
655,1	0,008
655,5	0,006
655,9	0,006
656,4	0,005
656,8	0,001
657,3	0,002
657,7	0,003
658,2	0,006
658,6	0,013
659	0,014
659,5	0,015
659,9	0,015
660,4	0,015
660,8	0,014
661,2	0,014
661,7	0,014
662,1	0,014
662,6	0,013
663	0,013
663,4	0,013
663,9	0,013
664,3	0,013
664,8	0,013
665,2	0,014
665,6	0,014
666,1	0,014
666,5	0,014
667	0,014
667,4	0,014
667,9	0,015
668,3	0,015
668,7	0,015
669,2	0,014
669,6	0,014
670,1	0,014
670,5	0,014
670,9	0,014
671,4	0,014
671,8	0,014
672,3	0,014
672,7	0,014
673,1	0,014
673,6	0,014
674	0,014
674,5	0,015
674,9	0,015
675,3	0,015
675,8	0,015
676,2	0,015
676,7	0,015
677,1	0,015
677,5	0,015
678	0,015
678,4	0,016
678,9	0,015
679,3	0,015
679,7	0,015
680,2	0,015
680,6	0,015
681,1	0,015
681,5	0,015
681,9	0,015
682,4	0,014
682,8	0,014
683,3	0,014
683,7	0,014
684,1	0,014
684,6	0,014
685	0,013
685,5	0,013
685,9	0,013
686,3	0,013
686,8	0,013
687,2	0,013
687,7	0,013
688,1	0,013
688,5	0,014
689	0,014
689,4	0,014
689,9	0,014
690,3	0,014
690,7	0,014
691,2	0,014
691,6	0,014
692	0,014
692,5	0,014
692,9	0,013
693,4	0,013
693,8	0,014
694,2	0,014
694,7	0,014
695,1	0,014
695,6	0,014
696	0,014
696,4	0,014
696,9	0,014
697,3	0,013
697,8	0,013
698,2	0,012
698,6	0,012
699,1	0,012
699,5	0,012
699,9	0,012
700,4	0,013
700,8	0,013
701,3	0,013
701,7	0,013
702,1	0,013
702,6	0,014
703	0,014
703,5	0,014
703,9	0,014
704,3	0,014
704,8	0,014
705,2	0,014
705,6	0,014
706,1	0,014
706,5	0,014
707	0,014
707,4	0,015
707,8	0,014
708,3	0,014
708,7	0,014
709,2	0,014
709,6	0,014
710	0,014
710,5	0,013
710,9	0,014
711,3	0,014
711,8	0,014
712,2	0,014
712,7	0,014
713,1	0,014
713,5	0,014
714	0,014
714,4	0,013
714,8	0,014
715,3	0,013
715,7	0,013
716,2	0,014
716,6	0,013
717	0,014
717,5	0,014
717,9	0,014
718,3	0,013
718,8	0,013
719,2	0,013
719,7	0,013
720,1	0,013
720,5	0,013
721	0,013
721,4	0,013
721,8	0,013
722,3	0,013
722,7	0,013
723,2	0,013
723,6	0,014
724	0,014
724,5	0,014
724,9	0,014
725,3	0,015
725,8	0,015
726,2	0,015
726,7	0,014
727,1	0,014
727,5	0,014
728	0,014
728,4	0,014
728,8	0,014
729,3	0,013
729,7	0,013
730,1	0,013
730,6	0,013
731	0,013
731,5	0,013
731,9	0,013
732,3	0,013
732,8	0,014
733,2	0,014
733,6	0,014
734,1	0,014
734,5	0,014
734,9	0,014
735,4	0,014
735,8	0,014
736,3	0,014
736,7	0,013
737,1	0,013
737,6	0,013
738	0,013
738,4	0,012
738,9	0,012
739,3	0,013
739,7	0,013
740,2	0,013
740,6	0,013
741,1	0,013
741,5	0,013
741,9	0,013
742,4	0,013
742,8	0,013
743,2	0,013
743,7	0,013
744,1	0,013
744,5	0,013
745	0,013
745,4	0,013
745,8	0,013
746,3	0,013
746,7	0,013
747,2	0,013
747,6	0,013
748	0,013
748,5	0,013
748,9	0,013
749,3	0,013
749,8	0,013
750,2	0,013
750,6	0,013
751,1	0,012
751,5	0,013
751,9	0,013
752,4	0,013
752,8	0,012
753,3	0,012
753,7	0,012
754,1	0,013
754,6	0,013
755	0,013
755,4	0,013
755,9	0,013
756,3	0,014
756,7	0,014
757,2	0,014
757,6	0,014
758	0,014
758,5	0,014
758,9	0,014
759,3	0,013
759,8	0,013
760,2	0,013
760,6	0,013
761,1	0,014
761,5	0,014
761,9	0,014
762,4	0,014
762,8	0,014
763,3	0,014
763,7	0,014
764,1	0,014
764,6	0,013
765	0,013
765,4	0,013
765,9	0,012
766,3	0,012
766,7	0,012
767,2	0,012
767,6	0,012
768	0,012
768,5	0,012
768,9	0,012
769,3	0,012
769,8	0,012
770,2	0,012
770,6	0,013
771,1	0,013
771,5	0,014
771,9	0,014
772,4	0,014
772,8	0,014
773,2	0,014
773,7	0,014
774,1	0,014
774,5	0,014
775	0,014
775,4	0,014
775,8	0,015
776,3	0,015
776,7	0,015
777,1	0,015
777,6	0,014
778	0,015
778,4	0,014
778,9	0,014
779,3	0,014
779,7	0,014
780,2	0,014
780,6	0,014
781	0,014
781,5	0,015
781,9	0,015
782,3	0,016
782,8	0,015
783,2	0,015
783,6	0,015
784,1	0,015
784,5	0,015
784,9	0,014
785,4	0,013
785,8	0,013
786,2	0,013
786,7	0,013
787,1	0,013
787,5	0,013
788	0,013
788,4	0,013
788,8	0,013
789,3	0,013
789,7	0,013
790,1	0,013
790,6	0,013
791	0,013
791,4	0,013
791,9	0,013
792,3	0,013
792,7	0,013
793,2	0,013
793,6	0,013
794	0,013
794,5	0,013
794,9	0,013
795,3	0,012
795,8	0,013
796,2	0,013
796,6	0,013
797,1	0,013
797,5	0,013
797,9	0,013
798,4	0,014
798,8	0,014
799,2	0,013
799,7	0,013
800,1	0,013
800,5	0,013
801	0,013
801,4	0,013
801,8	0,013
802,2	0,013
802,7	0,013
803,1	0,014
803,5	0,013
804	0,014
804,4	0,013
804,8	0,013
805,3	0,013
805,7	0,013
806,1	0,012
806,6	0,012
807	0,013
807,4	0,013
807,9	0,013
808,3	0,013
808,7	0,013
809,2	0,013
809,6	0,013
810	0,013
810,4	0,013
810,9	0,012
811,3	0,013
811,7	0,013
812,2	0,013
812,6	0,013
813	0,013
813,5	0,013
813,9	0,013
814,3	0,013
814,8	0,013
815,2	0,012
815,6	0,012
816,1	0,012
816,5	0,012
816,9	0,012
817,3	0,012
817,8	0,012
818,2	0,012
818,6	0,013
819,1	0,013
819,5	0,013
819,9	0,013
820,4	0,013
820,8	0,014
821,2	0,014
821,7	0,014
822,1	0,014
822,5	0,014
822,9	0,014
823,4	0,014
823,8	0,014
824,2	0,014
824,7	0,013
825,1	0,013
825,5	0,013
826	0,013
826,4	0,013
826,8	0,013
827,3	0,013
827,7	0,013
828,1	0,013
828,5	0,013
829	0,013
829,4	0,013
829,8	0,013
830,3	0,013
830,7	0,013
831,1	0,013
831,6	0,013
832	0,014
832,4	0,013
832,8	0,014
833,3	0,014
833,7	0,014
834,1	0,014
834,6	0,014
835	0,013
835,4	0,014
835,8	0,013
836,3	0,013
836,7	0,013
837,1	0,014
837,6	0,013
838	0,014
838,4	0,013
838,9	0,013
839,3	0,013
839,7	0,013
840,1	0,012
840,6	0,012
841	0,012
841,4	0,012
841,9	0,012
842,3	0,013
842,7	0,013
843,1	0,013
843,6	0,013
844	0,013
844,4	0,013
844,9	0,012
845,3	0,012
845,7	0,012
846,2	0,012
846,6	0,012
847	0,013
847,4	0,013
847,9	0,014
848,3	0,014
848,7	0,014
849,2	0,014
849,6	0,014
850	0,014
850,4	0,014
850,9	0,014
851,3	0,014
851,7	0,015
852,2	0,014
852,6	0,014
853	0,014
853,4	0,014
853,9	0,013
854,3	0,013
854,7	0,013
855,2	0,012
855,6	0,013
856	0,013
856,4	0,013
856,9	0,013
857,3	0,013
857,7	0,013
858,2	0,013
858,6	0,013
859	0,013
859,4	0,013
859,9	0,013
860,3	0,013
860,7	0,013
861,1	0,013
861,6	0,013
862	0,013
862,4	0,014
862,9	0,013
863,3	0,013
863,7	0,013
864,1	0,013
864,6	0,013
865	0,013
865,4	0,013
865,9	0,013
866,3	0,013
866,7	0,012
867,1	0,012
867,6	0,012
868	0,012
868,4	0,012
868,8	0,012
869,3	0,013
869,7	0,013
870,1	0,013
870,6	0,013
871	0,013
871,4	0,013
871,8	0,012
872,3	0,012
872,7	0,012
873,1	0,012
873,5	0,012
874	0,012
874,4	0,012
874,8	0,013
875,3	0,013
875,7	0,013
876,1	0,013
876,5	0,013
877	0,013
877,4	0,013
877,8	0,013
878,2	0,013
878,7	0,013
879,1	0,013
879,5	0,013
879,9	0,013
880,4	0,013
880,8	0,013
881,2	0,013
881,7	0,013
882,1	0,013
882,5	0,013
882,9	0,013
883,4	0,013
883,8	0,013
884,2	0,013
884,6	0,013
885,1	0,013
885,5	0,013
885,9	0,013
886,3	0,013
886,8	0,013
887,2	0,013
887,6	0,012
888	0,012
888,5	0,013
888,9	0,013
889,3	0,013
889,8	0,013
890,2	0,013
890,6	0,013
891	0,013
891,5	0,013
891,9	0,013
892,3	0,013
892,7	0,013
893,2	0,013
893,6	0,014
894	0,014
894,4	0,014
894,9	0,014
895,3	0,014
895,7	0,014
896,1	0,014
896,6	0,014
897	0,014
897,4	0,014
897,8	0,013
898,3	0,013
898,7	0,013
899,1	0,013
899,5	0,013
900	0,012
900,4	0,012
900,8	0,012
901,2	0,012
901,7	0,012
902,1	0,012
902,5	0,011
902,9	0,011
903,4	0,01
903,8	0,01
904,2	0,01
904,6	0,01
905,1	0,01
905,5	0,011
905,9	0,011
906,3	0,012
906,8	0,012
907,2	0,013
907,6	0,012
908	0,012
908,5	0,012
908,9	0,012
909,3	0,012
909,7	0,012
910,2	0,012
910,6	0,013
911	0,013
911,4	0,013
911,9	0,013
912,3	0,013
912,7	0,013
913,1	0,013
913,6	0,013
914	0,013
914,4	0,013
914,8	0,013
915,3	0,013
915,7	0,013
916,1	0,013
916,5	0,013
916,9	0,013
917,4	0,013
917,8	0,013
918,2	0,013
918,6	0,013
919,1	0,013
919,5	0,013
919,9	0,013
920,3	0,013
920,8	0,013
921,2	0,013
921,6	0,012
922	0,012
922,5	0,012
922,9	0,012
923,3	0,012
923,7	0,012
924,2	0,012
924,6	0,012
925	0,012
925,4	0,013
925,8	0,013
926,3	0,013
926,7	0,013
927,1	0,013
927,5	0,013
928	0,012
928,4	0,012
928,8	0,012
929,2	0,012
929,7	0,011
930,1	0,011
930,5	0,011
930,9	0,011
931,3	0,011
931,8	0,011
932,2	0,011
932,6	0,011
933	0,011
933,5	0,011
933,9	0,011
934,3	0,011
934,7	0,011
935,2	0,011
935,6	0,011
936	0,011
936,4	0,011
936,8	0,011
937,3	0,011
937,7	0,01
938,1	0,01
938,5	0,01
939	0,01
939,4	0,01
939,8	0,011
940,2	0,011
940,6	0,012
941,1	0,012
941,5	0,013
941,9	0,013
942,3	0,014
942,8	0,014
943,2	0,014
943,6	0,014
944	0,014
944,4	0,014
944,9	0,014
945,3	0,013
945,7	0,014
946,1	0,014
946,6	0,014
947	0,015
947,4	0,015
947,8	0,015
948,2	0,015
948,7	0,015
949,1	0,014
949,5	0,014
949,9	0,013
950,3	0,013
950,8	0,013
951,2	0,012
951,6	0,013
952	0,013
952,5	0,013
952,9	0,013
953,3	0,014
953,7	0,014
954,1	0,013
954,6	0,013
955	0,014
955,4	0,014
955,8	0,014
956,2	0,013
956,7	0,013
957,1	0,013
957,5	0,013
957,9	0,013
958,3	0,013
958,8	0,012
959,2	0,012
959,6	0,013
960	0,013
960,5	0,013
960,9	0,013
961,3	0,013
961,7	0,014
962,1	0,014
962,6	0,014
963	0,013
963,4	0,013
963,8	0,013
964,2	0,013
964,7	0,013
965,1	0,013
965,5	0,013
965,9	0,013
966,3	0,014
966,8	0,014
967,2	0,015
967,6	0,015
968	0,016
968,4	0,016
968,9	0,016
969,3	0,016
969,7	0,015
970,1	0,015
970,5	0,015
971	0,015
971,4	0,015
971,8	0,014
972,2	0,014
972,6	0,014
973,1	0,015
973,5	0,014
973,9	0,014
974,3	0,014
974,7	0,014
975,2	0,014
975,6	0,014
976	0,014
976,4	0,014
976,8	0,014
977,3	0,015
977,7	0,015
978,1	0,015
978,5	0,015
978,9	0,015
979,4	0,015
979,8	0,015
980,2	0,015
980,6	0,015
981	0,015
981,5	0,015
981,9	0,014
982,3	0,014
982,7	0,014
983,1	0,014
983,6	0,014
984	0,013
984,4	0,014
984,8	0,014
985,2	0,014
985,6	0,014
986,1	0,014
986,5	0,014
986,9	0,015
987,3	0,014
987,7	0,014
988,2	0,014
988,6	0,014
989	0,014
989,4	0,014
989,8	0,013
990,3	0,014
990,7	0,014
991,1	0,014
991,5	0,014
991,9	0,015
992,3	0,014
992,8	0,014
993,2	0,014
993,6	0,013
994	0,014
994,4	0,014
994,9	0,013
995,3	0,014
995,7	0,014
996,1	0,013
996,5	0,014
996,9	0,014
997,4	0,014
997,8	0,014
998,2	0,014
998,6	0,014
999	0,014
999,5	0,013
999,9	0,013
1000,3	0,012
1000,7	0,011
1001,1	0,011
1001,5	0,012
1002	0,012
1002,4	0,013
1002,8	0,013
1003,2	0,013
1003,6	0,014
1004	0,014
1004,5	0,014
1004,9	0,014
1005,3	0,014
1005,7	0,014
1006,1	0,014
1006,6	0,014
1007	0,014
1007,4	0,014
1007,8	0,013
1008,2	0,013
1008,6	0,013
1009,1	0,012
1009,5	0,012
1009,9	0,012
1010,3	0,012
1010,7	0,012
1011,1	0,013
1011,6	0,014
1012	0,014
1012,4	0,014
1012,8	0,014
1013,2	0,015
1013,6	0,015
1014,1	0,014
1014,5	0,014
1014,9	0,013
1015,3	0,014
1015,7	0,013
1016,1	0,013
1016,6	0,013
1017	0,013
1017,4	0,013
1017,8	0,014
1018,2	0,013
1018,6	0,012
1019,1	0,013
1019,5	0,012
1019,9	0,013
1020,3	0,013
1020,7	0,012
1021,1	0,013
1021,6	0,013
1022	0,012
1022,4	0,013
1022,8	0,013
1023,2	0,012
1023,6	0,013
1024,1	0,013
1024,5	0,013
1024,9	0,013
1025,3	0,013
1025,7	0,013
1026,1	0,013
1026,6	0,013
1027	0,013
1027,4	0,013
1027,8	0,014
1028,2	0,014
1028,6	0,015
1029	0,015
1029,5	0,016
1029,9	0,016
1030,3	0,016
1030,7	0,016
1031,1	0,016
1031,5	0,015
1032	0,015
1032,4	0,015
1032,8	0,015
1033,2	0,016
1033,6	0,016
1034	0,016
1034,4	0,017
1034,9	0,017
1035,3	0,016
1035,7	0,016
1036,1	0,016
1036,5	0,016
1036,9	0,015
1037,4	0,015
1037,8	0,015
1038,2	0,016
1038,6	0,016
1039	0,016
1039,4	0,017
1039,8	0,018
1040,3	0,018
1040,7	0,018
1041,1	0,018
1041,5	0,018
1041,9	0,018
1042,3	0,018
1042,7	0,017
1043,2	0,017
1043,6	0,018
1044	0,018
1044,4	0,017
1044,8	0,017
1045,2	0,017
1045,6	0,018
1046,1	0,018
1046,5	0,017
1046,9	0,017
1047,3	0,017
1047,7	0,017
1048,1	0,017
1048,5	0,017
1049	0,018
1049,4	0,018
1049,8	0,018
1050,2	0,018
1050,6	0,018
1051	0,018
1051,4	0,018
1051,9	0,018
1052,3	0,018
1052,7	0,018
1053,1	0,019
1053,5	0,019
1053,9	0,019
1054,3	0,019
1054,8	0,017
1055,2	0,018
1055,6	0,018
1056	0,017
1056,4	0,017
1056,8	0,018
1057,2	0,017
1057,6	0,018
1058,1	0,018
1058,5	0,018
1058,9	0,018
1059,3	0,02
1059,7	0,019
1060,1	0,02
1060,5	0,02
1061	0,021
1061,4	0,021
1061,8	0,021
1062,2	0,02
1062,6	0,02
1063	0,019
1063,4	0,02
1063,8	0,019
1064,3	0,02
1064,7	0,02
1065,1	0,02
1065,5	0,019
1065,9	0,02
1066,3	0,02
1066,7	0,019
1067,1	0,018
1067,6	0,018
1068	0,019
1068,4	0,019
1068,8	0,017
1069,2	0,017
1069,6	0,017
1070	0,018
1070,4	0,018
1070,9	0,018
1071,3	0,018
1071,7	0,019
1072,1	0,018
1072,5	0,019
1072,9	0,018
1073,3	0,019
1073,7	0,019
1074,2	0,02
1074,6	0,021
1075	0,022
1075,4	0,021
1075,8	0,023
1076,2	0,022
1076,6	0,021
1077	0,022
1077,5	0,022
1077,9	0,022
1078,3	0,021
1078,7	0,021
1079,1	0,02
1079,5	0,021
1079,9	0,02
1080,3	0,018
1080,7	0,018
1081,2	0,019
1081,6	0,017
1082	0,018
1082,4	0,017
1082,8	0,017
1083,2	0,018
1083,6	0,018
1084	0,019
1084,5	0,019
1084,9	0,019
1085,3	0,02
1085,7	0,02
1086,1	0,02
1086,5	0,021
1086,9	0,02
1087,3	0,02
1087,7	0,022
1088,2	0,022
1088,6	0,025
1089	0,026
1089,4	0,027
1089,8	0,028
1090,2	0,028
1090,6	0,028
1091	0,03
1091,4	0,031
1091,9	0,031
1092,3	0,032
1092,7	0,033
1093,1	0,036
1093,5	0,035
1093,9	0,034
1094,3	0,032
1094,7	0,034
1095,1	0,036
1095,5	0,039
1096	0,033
1096,4	0,041
1096,8	0,044
1097,2	0,044
1097,6	0,041
1098	0,041
1098,4	0,044
1098,8	0,052
1099,2	0,049
1099,6	0,052
1100,1	0,055
1100,5	0,061
1100,9	0,055
1101,3	0,058
1101,7	0,07
1102,1	0,071
1102,5	0,06
1102,9	0,07
1103,3	0,073
1103,7	0,08
1104,2	0,075
1104,6	0,064
1105	0,075
1105,4	0,084
1105,8	0,078
1106,2	0,079
1106,6	0,091
1107	0,093
1107,4	0,115
1107,8	0,049
1108,3	-0,383
