Data from Absorbance_165.txt Node
Date: Fri Nov 13 20:08:18 MSK 2020
User: vat
Spectrometer: MAYP114033
Trigger mode: 0
Integration Time (sec): 8,000000E-3
Scans to average: 10
Electric dark correction enabled: true
Nonlinearity correction enabled: false
Boxcar width: 3
XAxis mode: Wavelengths
Number of Pixels in Spectrum: 2068
>>>>>Begin Spectral Data<<<<<
199,4	-0
199,9	0,226
200,4	0,16
200,8	0,062
201,3	0,055
201,8	0,04
202,2	0,055
202,7	0,063
203,2	0,052
203,6	0,041
204,1	0,05
204,6	0,048
205	0,059
205,5	0,049
206	0,05
206,4	0,051
206,9	0,059
207,4	0,072
207,8	0,07
208,3	0,067
208,8	0,064
209,2	0,073
209,7	0,07
210,2	0,069
210,6	0,057
211,1	0,066
211,5	0,062
212	0,061
212,5	0,051
212,9	0,067
213,4	0,066
213,9	0,075
214,3	0,064
214,8	0,055
215,3	0,051
215,7	0,055
216,2	0,037
216,7	0,029
217,1	0,02
217,6	0,025
218,1	0,029
218,5	0,032
219	0,019
219,5	0,021
219,9	0,026
220,4	0,033
220,9	0,029
221,3	0,021
221,8	0,027
222,3	0,034
222,7	0,039
223,2	0,052
223,6	0,047
224,1	0,06
224,6	0,08
225	0,098
225,5	0,105
226	0,115
226,4	0,111
226,9	0,117
227,4	0,107
227,8	0,101
228,3	0,075
228,8	0,084
229,2	0,085
229,7	0,093
230,2	0,089
230,6	0,087
231,1	0,088
231,5	0,09
232	0,08
232,5	0,071
232,9	0,076
233,4	0,086
233,9	0,104
234,3	0,102
234,8	0,11
235,3	0,114
235,7	0,13
236,2	0,136
236,7	0,144
237,1	0,143
237,6	0,155
238,1	0,155
238,5	0,156
239	0,152
239,4	0,15
239,9	0,148
240,4	0,141
240,8	0,138
241,3	0,151
241,8	0,154
242,2	0,163
242,7	0,151
243,2	0,151
243,6	0,157
244,1	0,162
244,6	0,17
245	0,183
245,5	0,197
245,9	0,215
246,4	0,23
246,9	0,236
247,3	0,23
247,8	0,226
248,3	0,234
248,7	0,229
249,2	0,244
249,7	0,247
250,1	0,249
250,6	0,259
251	0,269
251,5	0,27
252	0,274
252,4	0,278
252,9	0,279
253,4	0,284
253,8	0,292
254,3	0,298
254,8	0,303
255,2	0,311
255,7	0,315
256,1	0,323
256,6	0,33
257,1	0,337
257,5	0,343
258	0,353
258,5	0,362
258,9	0,372
259,4	0,383
259,9	0,394
260,3	0,406
260,8	0,419
261,2	0,43
261,7	0,443
262,2	0,455
262,6	0,468
263,1	0,48
263,6	0,493
264	0,506
264,5	0,519
264,9	0,531
265,4	0,545
265,9	0,558
266,3	0,57
266,8	0,582
267,3	0,596
267,7	0,609
268,2	0,622
268,7	0,636
269,1	0,652
269,6	0,666
270	0,681
270,5	0,694
271	0,707
271,4	0,72
271,9	0,732
272,4	0,743
272,8	0,756
273,3	0,767
273,7	0,78
274,2	0,792
274,7	0,805
275,1	0,816
275,6	0,826
276,1	0,835
276,5	0,845
277	0,855
277,4	0,863
277,9	0,871
278,4	0,878
278,8	0,885
279,3	0,89
279,8	0,895
280,2	0,899
280,7	0,903
281,1	0,906
281,6	0,907
282,1	0,909
282,5	0,91
283	0,911
283,4	0,91
283,9	0,909
284,4	0,907
284,8	0,904
285,3	0,9
285,8	0,896
286,2	0,891
286,7	0,885
287,1	0,877
287,6	0,868
288,1	0,86
288,5	0,85
289	0,838
289,5	0,826
289,9	0,814
290,4	0,801
290,8	0,788
291,3	0,775
291,8	0,76
292,2	0,745
292,7	0,73
293,1	0,714
293,6	0,697
294,1	0,68
294,5	0,662
295	0,644
295,5	0,625
295,9	0,607
296,4	0,589
296,8	0,569
297,3	0,551
297,8	0,532
298,2	0,512
298,7	0,494
299,1	0,475
299,6	0,457
300,1	0,439
300,5	0,422
301	0,404
301,5	0,387
301,9	0,37
302,4	0,354
302,8	0,338
303,3	0,322
303,8	0,306
304,2	0,292
304,7	0,277
305,1	0,264
305,6	0,251
306,1	0,238
306,5	0,226
307	0,215
307,4	0,204
307,9	0,194
308,4	0,184
308,8	0,175
309,3	0,166
309,8	0,158
310,2	0,151
310,7	0,143
311,1	0,136
311,6	0,129
312,1	0,122
312,5	0,115
313	0,11
313,4	0,104
313,9	0,099
314,4	0,094
314,8	0,089
315,3	0,085
315,7	0,081
316,2	0,077
316,7	0,073
317,1	0,071
317,6	0,068
318	0,065
318,5	0,063
319	0,061
319,4	0,058
319,9	0,056
320,3	0,054
320,8	0,052
321,3	0,051
321,7	0,049
322,2	0,048
322,6	0,047
323,1	0,046
323,6	0,045
324	0,044
324,5	0,043
324,9	0,042
325,4	0,041
325,9	0,041
326,3	0,04
326,8	0,039
327,2	0,038
327,7	0,038
328,2	0,037
328,6	0,037
329,1	0,035
329,5	0,035
330	0,034
330,5	0,034
330,9	0,034
331,4	0,034
331,8	0,034
332,3	0,033
332,8	0,033
333,2	0,033
333,7	0,033
334,1	0,032
334,6	0,032
335,1	0,031
335,5	0,031
336	0,03
336,4	0,031
336,9	0,03
337,4	0,03
337,8	0,03
338,3	0,03
338,7	0,03
339,2	0,03
339,7	0,029
340,1	0,029
340,6	0,029
341	0,029
341,5	0,029
342	0,028
342,4	0,029
342,9	0,029
343,3	0,028
343,8	0,028
344,2	0,028
344,7	0,028
345,2	0,028
345,6	0,028
346,1	0,028
346,5	0,028
347	0,028
347,5	0,028
347,9	0,028
348,4	0,028
348,8	0,027
349,3	0,027
349,8	0,027
350,2	0,026
350,7	0,026
351,1	0,025
351,6	0,025
352	0,025
352,5	0,025
353	0,025
353,4	0,025
353,9	0,025
354,3	0,025
354,8	0,025
355,3	0,025
355,7	0,025
356,2	0,025
356,6	0,025
357,1	0,025
357,5	0,025
358	0,025
358,5	0,025
358,9	0,025
359,4	0,024
359,8	0,024
360,3	0,024
360,8	0,024
361,2	0,024
361,7	0,024
362,1	0,023
362,6	0,024
363	0,024
363,5	0,024
364	0,023
364,4	0,023
364,9	0,023
365,3	0,023
365,8	0,024
366,3	0,023
366,7	0,023
367,2	0,023
367,6	0,023
368,1	0,023
368,5	0,022
369	0,022
369,5	0,022
369,9	0,022
370,4	0,022
370,8	0,021
371,3	0,021
371,7	0,021
372,2	0,021
372,7	0,021
373,1	0,021
373,6	0,021
374	0,021
374,5	0,021
374,9	0,021
375,4	0,021
375,9	0,021
376,3	0,021
376,8	0,021
377,2	0,02
377,7	0,02
378,2	0,02
378,6	0,02
379,1	0,02
379,5	0,02
380	0,019
380,4	0,02
380,9	0,019
381,4	0,019
381,8	0,018
382,3	0,018
382,7	0,018
383,2	0,018
383,6	0,018
384,1	0,018
384,6	0,018
385	0,018
385,5	0,018
385,9	0,018
386,4	0,018
386,8	0,019
387,3	0,019
387,7	0,019
388,2	0,02
388,7	0,02
389,1	0,02
389,6	0,019
390	0,019
390,5	0,019
390,9	0,019
391,4	0,018
391,9	0,018
392,3	0,018
392,8	0,018
393,2	0,018
393,7	0,018
394,1	0,017
394,6	0,017
395,1	0,017
395,5	0,017
396	0,017
396,4	0,017
396,9	0,017
397,3	0,017
397,8	0,017
398,2	0,016
398,7	0,016
399,2	0,016
399,6	0,016
400,1	0,016
400,5	0,016
401	0,015
401,4	0,015
401,9	0,014
402,4	0,014
402,8	0,015
403,3	0,015
403,7	0,015
404,2	0,015
404,6	0,014
405,1	0,015
405,5	0,015
406	0,015
406,5	0,014
406,9	0,015
407,4	0,015
407,8	0,014
408,3	0,014
408,7	0,014
409,2	0,014
409,6	0,014
410,1	0,014
410,6	0,014
411	0,014
411,5	0,014
411,9	0,015
412,4	0,014
412,8	0,014
413,3	0,014
413,7	0,014
414,2	0,014
414,7	0,014
415,1	0,015
415,6	0,014
416	0,015
416,5	0,015
416,9	0,015
417,4	0,015
417,8	0,015
418,3	0,015
418,8	0,015
419,2	0,015
419,7	0,014
420,1	0,014
420,6	0,014
421	0,014
421,5	0,014
421,9	0,014
422,4	0,014
422,8	0,015
423,3	0,015
423,8	0,015
424,2	0,014
424,7	0,013
425,1	0,013
425,6	0,013
426	0,012
426,5	0,013
426,9	0,013
427,4	0,013
427,9	0,013
428,3	0,013
428,8	0,013
429,2	0,013
429,7	0,013
430,1	0,013
430,6	0,013
431	0,013
431,5	0,013
431,9	0,014
432,4	0,014
432,8	0,014
433,3	0,014
433,8	0,014
434,2	0,014
434,7	0,013
435,1	0,013
435,6	0,012
436	0,012
436,5	0,012
436,9	0,012
437,4	0,012
437,8	0,012
438,3	0,011
438,8	0,012
439,2	0,012
439,7	0,012
440,1	0,013
440,6	0,013
441	0,013
441,5	0,013
441,9	0,013
442,4	0,013
442,8	0,013
443,3	0,012
443,7	0,012
444,2	0,013
444,7	0,013
445,1	0,012
445,6	0,013
446	0,013
446,5	0,013
446,9	0,012
447,4	0,013
447,8	0,012
448,3	0,012
448,7	0,012
449,2	0,012
449,6	0,012
450,1	0,012
450,6	0,011
451	0,012
451,5	0,012
451,9	0,012
452,4	0,012
452,8	0,012
453,3	0,012
453,7	0,012
454,2	0,011
454,6	0,011
455,1	0,011
455,5	0,011
456	0,011
456,4	0,011
456,9	0,011
457,3	0,011
457,8	0,01
458,3	0,01
458,7	0,01
459,2	0,01
459,6	0,01
460,1	0,01
460,5	0,011
461	0,011
461,4	0,011
461,9	0,011
462,3	0,011
462,8	0,011
463,2	0,011
463,7	0,011
464,1	0,01
464,6	0,01
465	0,01
465,5	0,01
466	0,01
466,4	0,01
466,9	0,01
467,3	0,01
467,8	0,011
468,2	0,01
468,7	0,011
469,1	0,01
469,6	0,01
470	0,01
470,5	0,01
470,9	0,01
471,4	0,011
471,8	0,011
472,3	0,011
472,7	0,011
473,2	0,011
473,6	0,011
474,1	0,01
474,5	0,01
475	0,01
475,4	0,01
475,9	0,009
476,4	0,009
476,8	0,01
477,3	0,01
477,7	0,01
478,2	0,01
478,6	0,01
479,1	0,01
479,5	0,01
480	0,011
480,4	0,01
480,9	0,011
481,3	0,011
481,8	0,01
482,2	0,01
482,7	0,01
483,1	0,01
483,6	0,01
484	0,011
484,5	0,01
484,9	0,01
485,4	0,01
485,8	0,01
486,3	0,01
486,7	0,01
487,2	0,009
487,6	0,009
488,1	0,009
488,5	0,009
489	0,009
489,4	0,009
489,9	0,008
490,4	0,008
490,8	0,009
491,3	0,009
491,7	0,009
492,2	0,009
492,6	0,01
493,1	0,01
493,5	0,011
494	0,01
494,4	0,01
494,9	0,009
495,3	0,009
495,8	0,009
496,2	0,008
496,7	0,008
497,1	0,008
497,6	0,009
498	0,009
498,5	0,009
498,9	0,009
499,4	0,009
499,8	0,009
500,3	0,008
500,7	0,008
501,2	0,008
501,6	0,008
502,1	0,008
502,5	0,008
503	0,008
503,4	0,008
503,9	0,008
504,3	0,009
504,8	0,009
505,2	0,009
505,7	0,009
506,1	0,008
506,6	0,008
507	0,008
507,5	0,007
507,9	0,007
508,4	0,007
508,8	0,007
509,3	0,007
509,7	0,007
510,2	0,007
510,6	0,007
511,1	0,007
511,5	0,008
512	0,007
512,4	0,008
512,9	0,008
513,3	0,008
513,8	0,007
514,2	0,008
514,7	0,008
515,1	0,008
515,6	0,008
516	0,008
516,5	0,008
516,9	0,008
517,4	0,007
517,8	0,007
518,3	0,007
518,7	0,007
519,2	0,007
519,6	0,007
520,1	0,007
520,5	0,007
521	0,007
521,4	0,007
521,9	0,007
522,3	0,007
522,8	0,007
523,2	0,006
523,7	0,007
524,1	0,007
524,6	0,006
525	0,006
525,5	0,006
525,9	0,006
526,4	0,006
526,8	0,006
527,3	0,006
527,7	0,006
528,2	0,006
528,6	0,007
529,1	0,006
529,5	0,006
530	0,006
530,4	0,006
530,9	0,007
531,3	0,007
531,8	0,007
532,2	0,007
532,6	0,007
533,1	0,007
533,5	0,007
534	0,006
534,4	0,006
534,9	0,006
535,3	0,006
535,8	0,006
536,2	0,006
536,7	0,006
537,1	0,006
537,6	0,007
538	0,007
538,5	0,007
538,9	0,007
539,4	0,008
539,8	0,007
540,3	0,008
540,7	0,007
541,2	0,007
541,6	0,007
542,1	0,007
542,5	0,007
543	0,006
543,4	0,006
543,9	0,006
544,3	0,006
544,8	0,006
545,2	0,006
545,7	0,006
546,1	0,006
546,5	0,006
547	0,006
547,4	0,005
547,9	0,005
548,3	0,005
548,8	0,005
549,2	0,005
549,7	0,006
550,1	0,006
550,6	0,006
551	0,006
551,5	0,007
551,9	0,006
552,4	0,006
552,8	0,006
553,3	0,005
553,7	0,005
554,2	0,005
554,6	0,005
555,1	0,005
555,5	0,004
555,9	0,004
556,4	0,005
556,8	0,005
557,3	0,005
557,7	0,005
558,2	0,005
558,6	0,006
559,1	0,006
559,5	0,005
560	0,005
560,4	0,005
560,9	0,005
561,3	0,004
561,8	0,005
562,2	0,004
562,7	0,005
563,1	0,004
563,6	0,004
564	0,004
564,4	0,004
564,9	0,004
565,3	0,004
565,8	0,004
566,2	0,004
566,7	0,004
567,1	0,004
567,6	0,005
568	0,005
568,5	0,005
568,9	0,005
569,4	0,005
569,8	0,005
570,3	0,005
570,7	0,004
571,1	0,004
571,6	0,004
572	0,004
572,5	0,004
572,9	0,004
573,4	0,004
573,8	0,004
574,3	0,004
574,7	0,004
575,2	0,004
575,6	0,004
576,1	0,004
576,5	0,004
576,9	0,004
577,4	0,004
577,8	0,004
578,3	0,004
578,7	0,004
579,2	0,004
579,6	0,004
580,1	0,004
580,5	0,004
581	0,003
581,4	0,003
581,9	0,003
582,3	0,003
582,7	0,003
583,2	0,003
583,6	0,003
584,1	0,003
584,5	0,003
585	0,004
585,4	0,004
585,9	0,004
586,3	0,003
586,8	0,003
587,2	0,003
587,6	0,003
588,1	0,003
588,5	0,003
589	0,003
589,4	0,003
589,9	0,003
590,3	0,004
590,8	0,004
591,2	0,004
591,7	0,004
592,1	0,004
592,5	0,003
593	0,003
593,4	0,003
593,9	0,003
594,3	0,003
594,8	0,002
595,2	0,003
595,7	0,003
596,1	0,003
596,6	0,003
597	0,003
597,4	0,003
597,9	0,003
598,3	0,003
598,8	0,003
599,2	0,003
599,7	0,003
600,1	0,003
600,6	0,003
601	0,003
601,4	0,003
601,9	0,002
602,3	0,002
602,8	0,002
603,2	0,002
603,7	0,002
604,1	0,002
604,6	0,002
605	0,002
605,4	0,002
605,9	0,002
606,3	0,002
606,8	0,002
607,2	0,002
607,7	0,002
608,1	0,002
608,6	0,002
609	0,002
609,4	0,002
609,9	0,002
610,3	0,002
610,8	0,002
611,2	0,002
611,7	0,002
612,1	0,002
612,6	0,002
613	0,002
613,4	0,002
613,9	0,002
614,3	0,002
614,8	0,002
615,2	0,002
615,7	0,002
616,1	0,002
616,6	0,002
617	0,002
617,4	0,002
617,9	0,002
618,3	0,002
618,8	0,002
619,2	0,002
619,7	0,002
620,1	0,002
620,5	0,001
621	0,002
621,4	0,002
621,9	0,002
622,3	0,003
622,8	0,003
623,2	0,002
623,6	0,002
624,1	0,002
624,5	0,002
625	0,002
625,4	0,002
625,9	0,002
626,3	0,002
626,8	0,002
627,2	0,002
627,6	0,002
628,1	0,002
628,5	0,003
629	0,002
629,4	0,002
629,9	0,003
630,3	0,002
630,7	0,002
631,2	0,002
631,6	0,001
632,1	0,001
632,5	0,002
633	0,001
633,4	0,002
633,8	0,002
634,3	0,002
634,7	0,002
635,2	0,003
635,6	0,002
636,1	0,002
636,5	0,002
636,9	0,001
637,4	0,001
637,8	0,001
638,3	0,001
638,7	0,001
639,2	0,001
639,6	0,001
640	0,001
640,5	0,002
640,9	0,002
641,4	0,002
641,8	0,002
642,2	0,002
642,7	0,002
643,1	0,002
643,6	0,002
644	0,001
644,5	0,001
644,9	0,001
645,3	0,002
645,8	0,002
646,2	0,002
646,7	0,002
647,1	0,002
647,6	0,002
648	0,002
648,4	0,002
648,9	0,001
649,3	0,001
649,8	0,001
650,2	0,002
650,6	0,002
651,1	0,002
651,5	0,002
652	0,002
652,4	0,001
652,9	0,001
653,3	0,002
653,7	0,004
654,2	0,003
654,6	0,002
655,1	0,002
655,5	0,001
655,9	0,001
656,4	0,001
656,8	-0
657,3	-0
657,7	-0,001
658,2	-0,001
658,6	0,001
659	0,001
659,5	0,001
659,9	0,001
660,4	0,001
660,8	0,001
661,2	0,002
661,7	0,001
662,1	0,001
662,6	0,001
663	0,001
663,4	0,001
663,9	0,001
664,3	0,001
664,8	0,001
665,2	0,001
665,6	0,001
666,1	0,001
666,5	0,001
667	0,001
667,4	0
667,9	0
668,3	0
668,7	0,001
669,2	0,001
669,6	0,001
670,1	0,001
670,5	0,001
670,9	0,001
671,4	0,001
671,8	0,001
672,3	0,001
672,7	0,001
673,1	0,001
673,6	0,001
674	0,001
674,5	0,001
674,9	0,001
675,3	0,001
675,8	0,001
676,2	0,001
676,7	0,001
677,1	0,001
677,5	0,001
678	0,001
678,4	0,001
678,9	0,001
679,3	0
679,7	0,001
680,2	0
680,6	0
681,1	0
681,5	0
681,9	0,001
682,4	0,001
682,8	0,001
683,3	0,001
683,7	0,001
684,1	0,001
684,6	0,001
685	0
685,5	-0
685,9	-0
686,3	-0
686,8	-0
687,2	-0
687,7	-0
688,1	-0,001
688,5	-0
689	-0
689,4	-0
689,9	0
690,3	0
690,7	0
691,2	0,001
691,6	0
692	0
692,5	-0
692,9	-0
693,4	-0
693,8	-0
694,2	-0
694,7	0
695,1	0
695,6	0,001
696	0,001
696,4	0,001
696,9	0
697,3	0
697,8	0
698,2	-0
698,6	-0
699,1	0
699,5	0
699,9	0
700,4	0
700,8	0
701,3	0,001
701,7	0
702,1	0
702,6	0
703	0
703,5	0
703,9	0
704,3	0
704,8	0
705,2	0
705,6	0,001
706,1	0
706,5	0
707	0,001
707,4	0,001
707,8	0,001
708,3	0
708,7	0
709,2	0
709,6	-0
710	-0
710,5	-0
710,9	-0
711,3	-0
711,8	-0,001
712,2	-0
712,7	-0,001
713,1	-0
713,5	-0
714	-0
714,4	0
714,8	0
715,3	0
715,7	0
716,2	0
716,6	0
717	0
717,5	0
717,9	0
718,3	0
718,8	0
719,2	0,001
719,7	0,001
720,1	0
720,5	0
721	0
721,4	0
721,8	0,001
722,3	0
722,7	-0
723,2	0
723,6	0
724	0
724,5	0,001
724,9	0
725,3	0,001
725,8	0,001
726,2	0,001
726,7	0
727,1	0,001
727,5	0,001
728	0,001
728,4	0
728,8	0
729,3	0
729,7	0
730,1	0,001
730,6	0,001
731	0,001
731,5	0,001
731,9	0,001
732,3	0,001
732,8	0,001
733,2	0,001
733,6	0,001
734,1	0,001
734,5	0
734,9	0
735,4	0,001
735,8	0,001
736,3	0,001
736,7	0,001
737,1	0,001
737,6	0,001
738	0,002
738,4	0,001
738,9	0,001
739,3	0,001
739,7	0,001
740,2	0,001
740,6	0,001
741,1	0,001
741,5	0,001
741,9	0,001
742,4	0,001
742,8	0,001
743,2	0,001
743,7	0
744,1	0
744,5	0
745	0
745,4	0
745,8	0
746,3	0
746,7	0
747,2	0
747,6	0
748	0
748,5	0
748,9	0
749,3	0
749,8	0
750,2	0,001
750,6	0,001
751,1	0,001
751,5	0
751,9	0
752,4	0
752,8	0
753,3	0
753,7	-0
754,1	-0
754,6	0
755	0
755,4	0
755,9	0
756,3	0
756,7	0
757,2	0
757,6	0
758	0
758,5	-0
758,9	-0
759,3	-0
759,8	-0
760,2	-0
760,6	-0
761,1	-0
761,5	-0
761,9	-0
762,4	0
762,8	0
763,3	0
763,7	0
764,1	0,001
764,6	0
765	0
765,4	0
765,9	0
766,3	0
766,7	0
767,2	0
767,6	0
768	0
768,5	0,001
768,9	0,001
769,3	0,001
769,8	0,001
770,2	0
770,6	0,001
771,1	0,001
771,5	0
771,9	0
772,4	0
772,8	0
773,2	0
773,7	0
774,1	-0
774,5	-0,001
775	-0,001
775,4	-0,001
775,8	-0,001
776,3	-0,001
776,7	-0,001
777,1	-0,001
777,6	-0,001
778	-0,001
778,4	-0,001
778,9	-0,001
779,3	-0,001
779,7	-0,001
780,2	-0,001
780,6	-0,001
781	-0
781,5	-0
781,9	-0
782,3	-0
782,8	0
783,2	-0
783,6	-0
784,1	-0,001
784,5	-0,001
784,9	-0,002
785,4	-0,001
785,8	-0,001
786,2	-0,001
786,7	-0,001
787,1	-0
787,5	-0
788	-0
788,4	0
788,8	0
789,3	0
789,7	0
790,1	0
790,6	0
791	0
791,4	0
791,9	0
792,3	-0
792,7	-0
793,2	-0
793,6	-0
794	0
794,5	0
794,9	0
795,3	0,001
795,8	0,001
796,2	0,001
796,6	0,001
797,1	0,001
797,5	0
797,9	0
798,4	0
798,8	-0
799,2	-0
799,7	-0
800,1	-0
800,5	0
801	0
801,4	0,001
801,8	0,001
802,2	0,001
802,7	0,002
803,1	0,001
803,5	0,001
804	0,001
804,4	0,001
804,8	0
805,3	-0
805,7	-0
806,1	-0,001
806,6	-0,001
807	-0,001
807,4	-0,001
807,9	-0
808,3	-0
808,7	-0
809,2	0
809,6	0
810	0
810,4	0,001
810,9	0,001
811,3	0
811,7	0
812,2	0
812,6	-0
813	-0,001
813,5	-0,001
813,9	-0,001
814,3	-0,001
814,8	-0,001
815,2	-0,001
815,6	-0,001
816,1	-0,001
816,5	-0,001
816,9	-0,001
817,3	-0,001
817,8	-0,001
818,2	-0,001
818,6	-0,001
819,1	-0,001
819,5	-0,001
819,9	-0,001
820,4	-0,001
820,8	-0,001
821,2	-0,001
821,7	-0,001
822,1	-0,002
822,5	-0,002
822,9	-0,001
823,4	-0,001
823,8	-0,001
824,2	-0
824,7	-0
825,1	0
825,5	0
826	0
826,4	0
826,8	-0
827,3	-0,001
827,7	-0,001
828,1	-0,001
828,5	-0,001
829	-0,001
829,4	-0,001
829,8	-0,001
830,3	-0,001
830,7	-0,001
831,1	-0,001
831,6	-0,001
832	-0,001
832,4	-0,001
832,8	-0,001
833,3	-0,001
833,7	-0
834,1	-0,001
834,6	-0,001
835	-0,001
835,4	-0,001
835,8	-0,001
836,3	-0,001
836,7	-0,001
837,1	-0,001
837,6	-0,001
838	-0,001
838,4	-0,001
838,9	-0,002
839,3	-0,002
839,7	-0,002
840,1	-0,002
840,6	-0,002
841	-0,001
841,4	-0,001
841,9	-0,001
842,3	-0,001
842,7	-0
843,1	-0
843,6	-0
844	0
844,4	0
844,9	0
845,3	0
845,7	0
846,2	0
846,6	-0
847	-0
847,4	-0,001
847,9	-0,001
848,3	-0,001
848,7	-0,001
849,2	-0,001
849,6	-0,001
850	-0,001
850,4	-0,001
850,9	-0,001
851,3	-0,001
851,7	-0,001
852,2	-0,001
852,6	-0,001
853	-0,001
853,4	-0,001
853,9	-0,001
854,3	-0
854,7	-0
855,2	-0
855,6	-0
856	-0
856,4	-0
856,9	-0
857,3	-0,001
857,7	-0
858,2	-0
858,6	-0
859	-0
859,4	0
859,9	-0
860,3	0
860,7	-0
861,1	-0
861,6	-0
862	-0
862,4	-0,001
862,9	-0,001
863,3	-0
863,7	-0
864,1	0
864,6	0
865	0,001
865,4	0,001
865,9	0
866,3	0
866,7	0
867,1	-0
867,6	0
868	-0
868,4	0
868,8	0,001
869,3	0,001
869,7	0,001
870,1	0,001
870,6	0
871	0,001
871,4	0
871,8	-0
872,3	-0
872,7	-0,001
873,1	-0,001
873,5	-0,001
874	-0,001
874,4	-0,001
874,8	-0,001
875,3	-0,001
875,7	-0,001
876,1	-0,001
876,5	-0,001
877	-0,001
877,4	-0,001
877,8	-0
878,2	-0
878,7	-0
879,1	-0
879,5	-0
879,9	-0
880,4	-0,001
880,8	-0,001
881,2	-0,001
881,7	-0,001
882,1	-0
882,5	0
882,9	0
883,4	0
883,8	0
884,2	0
884,6	0
885,1	-0,001
885,5	-0,001
885,9	-0,001
886,3	-0,001
886,8	-0,001
887,2	-0,001
887,6	-0
888	-0
888,5	-0
888,9	-0
889,3	0
889,8	0
890,2	0
890,6	0
891	0
891,5	0
891,9	0
892,3	-0
892,7	-0,001
893,2	-0
893,6	-0
894	-0
894,4	-0
894,9	-0,001
895,3	-0,001
895,7	-0
896,1	-0,001
896,6	-0,001
897	-0,001
897,4	-0,002
897,8	-0,002
898,3	-0,002
898,7	-0,001
899,1	-0,001
899,5	-0,001
900	-0,001
900,4	-0,001
900,8	-0
901,2	0
901,7	0
902,1	0
902,5	0
902,9	0,001
903,4	0
903,8	0
904,2	0
904,6	0
905,1	0
905,5	-0
905,9	-0
906,3	-0
906,8	-0
907,2	0
907,6	0
908	0,001
908,5	0,001
908,9	0,002
909,3	0,002
909,7	0,001
910,2	0,001
910,6	0,001
911	0,001
911,4	0,001
911,9	0,001
912,3	0,001
912,7	0,001
913,1	0
913,6	-0
914	0
914,4	-0
914,8	-0,001
915,3	-0,001
915,7	-0,001
916,1	-0,001
916,5	-0,001
916,9	-0,001
917,4	-0,001
917,8	-0,001
918,2	-0,002
918,6	-0,002
919,1	-0,002
919,5	-0,002
919,9	-0,002
920,3	-0,001
920,8	-0,001
921,2	-0,001
921,6	-0
922	-0
922,5	0
922,9	0
923,3	0
923,7	0
924,2	-0
924,6	-0
925	-0,001
925,4	-0,001
925,8	-0,001
926,3	-0,001
926,7	-0,001
927,1	-0,001
927,5	-0,001
928	-0,001
928,4	-0,001
928,8	-0
929,2	0
929,7	0,001
930,1	0,001
930,5	0,001
930,9	0,001
931,3	0,001
931,8	0,001
932,2	0
932,6	0
933	0
933,5	0,001
933,9	0
934,3	0
934,7	-0
935,2	-0
935,6	-0
936	-0
936,4	-0
936,8	-0
937,3	-0
937,7	0
938,1	0
938,5	0
939	-0
939,4	-0
939,8	-0,001
940,2	-0,001
940,6	-0,001
941,1	-0,001
941,5	-0,001
941,9	-0
942,3	-0
942,8	0,001
943,2	0,001
943,6	0,001
944	0,001
944,4	0,001
944,9	-0
945,3	-0
945,7	-0,001
946,1	-0,001
946,6	-0,001
947	-0,001
947,4	-0,001
947,8	-0,001
948,2	-0,001
948,7	-0
949,1	-0
949,5	-0
949,9	-0
950,3	0
950,8	0
951,2	0
951,6	0
952	0
952,5	0
952,9	0
953,3	0
953,7	0,001
954,1	0,001
954,6	0,001
955	0,001
955,4	0,001
955,8	0,001
956,2	0,001
956,7	0
957,1	0,001
957,5	-0
957,9	0
958,3	-0
958,8	-0
959,2	0
959,6	0
960	0
960,5	0
960,9	0,001
961,3	0,001
961,7	0,001
962,1	0,001
962,6	0,001
963	0,001
963,4	0,001
963,8	0,001
964,2	0,002
964,7	0,002
965,1	0,002
965,5	0,002
965,9	0,002
966,3	0,002
966,8	0,001
967,2	0,001
967,6	0
968	0
968,4	0
968,9	0
969,3	0
969,7	0
970,1	-0
970,5	-0
971	-0,001
971,4	-0,001
971,8	-0,001
972,2	-0,002
972,6	-0,002
973,1	-0,001
973,5	-0,002
973,9	-0,002
974,3	-0,001
974,7	-0,001
975,2	-0
975,6	0
976	0
976,4	0
976,8	0
977,3	-0
977,7	-0
978,1	0
978,5	-0,001
978,9	-0,001
979,4	-0,001
979,8	-0
980,2	-0
980,6	0
981	0
981,5	0
981,9	-0
982,3	0
982,7	-0
983,1	-0,001
983,6	-0,001
984	-0
984,4	-0
984,8	0
985,2	0
985,6	0,001
986,1	0,001
986,5	0,001
986,9	0,001
987,3	0,001
987,7	0,001
988,2	0,002
988,6	0,002
989	0,002
989,4	0,001
989,8	0,001
990,3	0,001
990,7	0
991,1	0
991,5	-0
991,9	-0,001
992,3	-0
992,8	-0
993,2	-0,001
993,6	-0,001
994	0
994,4	0
994,9	0
995,3	-0
995,7	-0
996,1	-0
996,5	-0
996,9	-0
997,4	-0
997,8	-0,001
998,2	-0,001
998,6	-0,001
999	-0,001
999,5	-0,001
999,9	-0,002
1000,3	-0,001
1000,7	-0
1001,1	0
1001,5	0,001
1002	0,001
1002,4	0,002
1002,8	0,002
1003,2	0,002
1003,6	0,001
1004	0,001
1004,5	0,001
1004,9	0
1005,3	-0
1005,7	-0
1006,1	-0,001
1006,6	-0
1007	-0,001
1007,4	-0,001
1007,8	-0,001
1008,2	-0,001
1008,6	-0,001
1009,1	-0,001
1009,5	-0,001
1009,9	-0,001
1010,3	-0,001
1010,7	-0
1011,1	-0
1011,6	-0,001
1012	-0,001
1012,4	-0
1012,8	-0
1013,2	0
1013,6	0,001
1014,1	0,001
1014,5	0,001
1014,9	0,001
1015,3	0,002
1015,7	0,001
1016,1	0,001
1016,6	0,001
1017	0,001
1017,4	0,001
1017,8	0
1018,2	-0
1018,6	0
1019,1	-0
1019,5	-0
1019,9	-0,001
1020,3	-0,001
1020,7	-0,001
1021,1	0,001
1021,6	0,001
1022	0,001
1022,4	0,001
1022,8	0,002
1023,2	0,003
1023,6	0,003
1024,1	0,002
1024,5	0,002
1024,9	0,002
1025,3	0,001
1025,7	0,001
1026,1	0
1026,6	-0
1027	-0,001
1027,4	-0
1027,8	-0,001
1028,2	-0
1028,6	-0
1029	0
1029,5	0
1029,9	0,001
1030,3	0,001
1030,7	0,002
1031,1	0,001
1031,5	0,001
1032	0,001
1032,4	0
1032,8	0
1033,2	-0
1033,6	-0,001
1034	-0,001
1034,4	-0,001
1034,9	-0,001
1035,3	-0,001
1035,7	-0
1036,1	-0
1036,5	-0
1036,9	-0
1037,4	0
1037,8	0,001
1038,2	0,002
1038,6	0,002
1039	0,001
1039,4	0,001
1039,8	0,001
1040,3	0,001
1040,7	0
1041,1	-0
1041,5	-0,001
1041,9	-0
1042,3	0
1042,7	0,001
1043,2	0,001
1043,6	0,001
1044	0,001
1044,4	0,001
1044,8	0,001
1045,2	0,001
1045,6	0,001
1046,1	0,001
1046,5	0,002
1046,9	0,002
1047,3	0,002
1047,7	0,001
1048,1	0
1048,5	0
1049	-0
1049,4	-0,001
1049,8	-0,001
1050,2	-0,001
1050,6	-0
1051	0
1051,4	0,001
1051,9	0,001
1052,3	0,001
1052,7	0,001
1053,1	0,002
1053,5	0,001
1053,9	0,001
1054,3	0,001
1054,8	0,001
1055,2	0,001
1055,6	0,001
1056	0,001
1056,4	0,001
1056,8	0,001
1057,2	0,001
1057,6	0,001
1058,1	0
1058,5	-0
1058,9	-0
1059,3	0
1059,7	0,001
1060,1	-0
1060,5	0,001
1061	0,001
1061,4	0,001
1061,8	0,001
1062,2	0,001
1062,6	-0
1063	0,001
1063,4	-0
1063,8	-0
1064,3	-0
1064,7	-0,002
1065,1	-0,002
1065,5	-0,002
1065,9	-0,003
1066,3	-0,003
1066,7	-0,003
1067,1	-0,002
1067,6	-0,001
1068	-0,001
1068,4	-0
1068,8	0
1069,2	0,001
1069,6	0,002
1070	0,002
1070,4	0,003
1070,9	0,003
1071,3	0,003
1071,7	0,002
1072,1	0,002
1072,5	0,001
1072,9	0
1073,3	-0,001
1073,7	-0
1074,2	0
1074,6	-0
1075	-0
1075,4	-0
1075,8	0
1076,2	0
1076,6	-0
1077	0
1077,5	0,001
1077,9	0,002
1078,3	0,003
1078,7	0,002
1079,1	0,003
1079,5	0,002
1079,9	0,002
1080,3	0,002
1080,7	0,002
1081,2	0,002
1081,6	0,004
1082	0,004
1082,4	0,006
1082,8	0,007
1083,2	0,008
1083,6	0,006
1084	0,004
1084,5	0,002
1084,9	0,004
1085,3	0,002
1085,7	0
1086,1	-0,001
1086,5	-0
1086,9	-0
1087,3	0,001
1087,7	0,001
1088,2	0,001
1088,6	0,003
1089	0,005
1089,4	0,004
1089,8	0,007
1090,2	0,005
1090,6	0,002
1091	0,002
1091,4	-0,001
1091,9	-0,003
1092,3	-0,004
1092,7	-0,004
1093,1	-0,004
1093,5	-0,004
1093,9	-0,004
1094,3	-0,006
1094,7	-0,006
1095,1	-0,007
1095,5	-0,008
1096	-0,008
1096,4	-0,011
1096,8	-0,014
1097,2	-0,003
1097,6	0,002
1098	0,006
1098,4	0,009
1098,8	0,007
1099,2	0,013
1099,6	0,02
1100,1	0,018
1100,5	0,017
1100,9	0,023
1101,3	0,02
1101,7	0,018
1102,1	0,024
1102,5	0,019
1102,9	0,01
1103,3	0
1103,7	-0,007
1104,2	-0,002
1104,6	0,009
1105	-0
1105,4	-0,002
1105,8	0,007
1106,2	0,018
1106,6	0,025
1107	0,027
1107,4	0,02
1107,8	0,031
1108,3	-0
