Data from Absorbance_085.txt Node
Date: Fri Nov 13 14:46:00 MSK 2020
User: vat
Spectrometer: MAYP114033
Trigger mode: 0
Integration Time (sec): 8,000000E-3
Scans to average: 10
Electric dark correction enabled: true
Nonlinearity correction enabled: false
Boxcar width: 3
XAxis mode: Wavelengths
Number of Pixels in Spectrum: 2068
>>>>>Begin Spectral Data<<<<<
199,4	-0
199,9	1,939
200,4	0,188
200,8	0,198
201,3	0,084
201,8	0,116
202,2	0,121
202,7	0,121
203,2	0,143
203,6	0,155
204,1	0,163
204,6	0,182
205	0,18
205,5	0,166
206	0,161
206,4	0,152
206,9	0,168
207,4	0,158
207,8	0,155
208,3	0,142
208,8	0,15
209,2	0,137
209,7	0,144
210,2	0,137
210,6	0,133
211,1	0,134
211,5	0,146
212	0,164
212,5	0,19
212,9	0,191
213,4	0,196
213,9	0,196
214,3	0,185
214,8	0,205
215,3	0,189
215,7	0,181
216,2	0,179
216,7	0,181
217,1	0,195
217,6	0,206
218,1	0,188
218,5	0,196
219	0,202
219,5	0,194
219,9	0,197
220,4	0,181
220,9	0,177
221,3	0,184
221,8	0,181
222,3	0,172
222,7	0,178
223,2	0,161
223,6	0,173
224,1	0,157
224,6	0,141
225	0,132
225,5	0,126
226	0,12
226,4	0,114
226,9	0,094
227,4	0,108
227,8	0,117
228,3	0,116
228,8	0,139
229,2	0,146
229,7	0,149
230,2	0,148
230,6	0,147
231,1	0,145
231,5	0,161
232	0,141
232,5	0,137
232,9	0,142
233,4	0,143
233,9	0,158
234,3	0,163
234,8	0,157
235,3	0,165
235,7	0,163
236,2	0,169
236,7	0,169
237,1	0,156
237,6	0,15
238,1	0,142
238,5	0,133
239	0,125
239,4	0,131
239,9	0,145
240,4	0,14
240,8	0,145
241,3	0,164
241,8	0,172
242,2	0,181
242,7	0,158
243,2	0,149
243,6	0,15
244,1	0,152
244,6	0,148
245	0,146
245,5	0,152
245,9	0,155
246,4	0,151
246,9	0,154
247,3	0,148
247,8	0,14
248,3	0,135
248,7	0,127
249,2	0,129
249,7	0,132
250,1	0,127
250,6	0,125
251	0,125
251,5	0,124
252	0,12
252,4	0,115
252,9	0,116
253,4	0,114
253,8	0,113
254,3	0,113
254,8	0,112
255,2	0,114
255,7	0,116
256,1	0,116
256,6	0,118
257,1	0,12
257,5	0,122
258	0,125
258,5	0,126
258,9	0,129
259,4	0,131
259,9	0,133
260,3	0,135
260,8	0,137
261,2	0,14
261,7	0,144
262,2	0,148
262,6	0,151
263,1	0,155
263,6	0,158
264	0,162
264,5	0,166
264,9	0,17
265,4	0,173
265,9	0,177
266,3	0,181
266,8	0,185
267,3	0,188
267,7	0,192
268,2	0,196
268,7	0,199
269,1	0,203
269,6	0,207
270	0,211
270,5	0,214
271	0,218
271,4	0,22
271,9	0,224
272,4	0,227
272,8	0,23
273,3	0,234
273,7	0,238
274,2	0,24
274,7	0,244
275,1	0,247
275,6	0,25
276,1	0,253
276,5	0,256
277	0,258
277,4	0,26
277,9	0,263
278,4	0,264
278,8	0,266
279,3	0,267
279,8	0,269
280,2	0,27
280,7	0,271
281,1	0,271
281,6	0,272
282,1	0,272
282,5	0,273
283	0,273
283,4	0,274
283,9	0,274
284,4	0,274
284,8	0,274
285,3	0,273
285,8	0,271
286,2	0,269
286,7	0,267
287,1	0,265
287,6	0,262
288,1	0,26
288,5	0,257
289	0,254
289,5	0,251
289,9	0,248
290,4	0,243
290,8	0,24
291,3	0,236
291,8	0,232
292,2	0,228
292,7	0,223
293,1	0,219
293,6	0,214
294,1	0,209
294,5	0,204
295	0,199
295,5	0,194
295,9	0,189
296,4	0,183
296,8	0,178
297,3	0,172
297,8	0,167
298,2	0,162
298,7	0,156
299,1	0,15
299,6	0,145
300,1	0,14
300,5	0,135
301	0,13
301,5	0,125
301,9	0,121
302,4	0,117
302,8	0,112
303,3	0,108
303,8	0,104
304,2	0,1
304,7	0,096
305,1	0,092
305,6	0,088
306,1	0,084
306,5	0,081
307	0,077
307,4	0,074
307,9	0,071
308,4	0,068
308,8	0,065
309,3	0,063
309,8	0,061
310,2	0,058
310,7	0,056
311,1	0,054
311,6	0,052
312,1	0,051
312,5	0,049
313	0,047
313,4	0,046
313,9	0,044
314,4	0,043
314,8	0,042
315,3	0,04
315,7	0,039
316,2	0,038
316,7	0,037
317,1	0,037
317,6	0,036
318	0,035
318,5	0,034
319	0,033
319,4	0,033
319,9	0,032
320,3	0,032
320,8	0,031
321,3	0,03
321,7	0,03
322,2	0,029
322,6	0,029
323,1	0,028
323,6	0,028
324	0,028
324,5	0,028
324,9	0,028
325,4	0,027
325,9	0,028
326,3	0,027
326,8	0,027
327,2	0,027
327,7	0,027
328,2	0,027
328,6	0,026
329,1	0,026
329,5	0,025
330	0,025
330,5	0,024
330,9	0,024
331,4	0,025
331,8	0,025
332,3	0,024
332,8	0,025
333,2	0,024
333,7	0,024
334,1	0,023
334,6	0,023
335,1	0,023
335,5	0,022
336	0,022
336,4	0,022
336,9	0,022
337,4	0,022
337,8	0,022
338,3	0,022
338,7	0,022
339,2	0,023
339,7	0,022
340,1	0,022
340,6	0,022
341	0,022
341,5	0,022
342	0,022
342,4	0,022
342,9	0,022
343,3	0,022
343,8	0,022
344,2	0,022
344,7	0,022
345,2	0,022
345,6	0,022
346,1	0,022
346,5	0,021
347	0,021
347,5	0,021
347,9	0,021
348,4	0,021
348,8	0,021
349,3	0,021
349,8	0,021
350,2	0,022
350,7	0,022
351,1	0,022
351,6	0,021
352	0,021
352,5	0,022
353	0,022
353,4	0,021
353,9	0,021
354,3	0,021
354,8	0,021
355,3	0,021
355,7	0,021
356,2	0,021
356,6	0,021
357,1	0,021
357,5	0,021
358	0,021
358,5	0,021
358,9	0,021
359,4	0,021
359,8	0,021
360,3	0,021
360,8	0,021
361,2	0,021
361,7	0,02
362,1	0,02
362,6	0,02
363	0,02
363,5	0,019
364	0,019
364,4	0,019
364,9	0,02
365,3	0,02
365,8	0,02
366,3	0,02
366,7	0,02
367,2	0,02
367,6	0,02
368,1	0,019
368,5	0,019
369	0,019
369,5	0,019
369,9	0,019
370,4	0,019
370,8	0,018
371,3	0,019
371,7	0,019
372,2	0,018
372,7	0,018
373,1	0,018
373,6	0,019
374	0,019
374,5	0,019
374,9	0,019
375,4	0,019
375,9	0,019
376,3	0,018
376,8	0,018
377,2	0,018
377,7	0,018
378,2	0,018
378,6	0,018
379,1	0,018
379,5	0,018
380	0,018
380,4	0,018
380,9	0,018
381,4	0,018
381,8	0,017
382,3	0,018
382,7	0,017
383,2	0,018
383,6	0,017
384,1	0,017
384,6	0,018
385	0,018
385,5	0,018
385,9	0,017
386,4	0,017
386,8	0,017
387,3	0,017
387,7	0,017
388,2	0,017
388,7	0,017
389,1	0,017
389,6	0,017
390	0,017
390,5	0,017
390,9	0,017
391,4	0,017
391,9	0,017
392,3	0,017
392,8	0,016
393,2	0,017
393,7	0,017
394,1	0,017
394,6	0,017
395,1	0,017
395,5	0,017
396	0,017
396,4	0,016
396,9	0,016
397,3	0,016
397,8	0,016
398,2	0,016
398,7	0,016
399,2	0,016
399,6	0,016
400,1	0,016
400,5	0,016
401	0,016
401,4	0,016
401,9	0,016
402,4	0,016
402,8	0,016
403,3	0,016
403,7	0,016
404,2	0,016
404,6	0,016
405,1	0,015
405,5	0,015
406	0,015
406,5	0,015
406,9	0,016
407,4	0,016
407,8	0,016
408,3	0,016
408,7	0,016
409,2	0,016
409,6	0,015
410,1	0,015
410,6	0,015
411	0,015
411,5	0,015
411,9	0,015
412,4	0,015
412,8	0,015
413,3	0,015
413,7	0,015
414,2	0,015
414,7	0,015
415,1	0,015
415,6	0,015
416	0,015
416,5	0,015
416,9	0,015
417,4	0,015
417,8	0,015
418,3	0,015
418,8	0,015
419,2	0,016
419,7	0,016
420,1	0,016
420,6	0,016
421	0,016
421,5	0,016
421,9	0,016
422,4	0,015
422,8	0,015
423,3	0,014
423,8	0,014
424,2	0,014
424,7	0,014
425,1	0,014
425,6	0,014
426	0,014
426,5	0,014
426,9	0,014
427,4	0,014
427,9	0,014
428,3	0,014
428,8	0,014
429,2	0,013
429,7	0,013
430,1	0,013
430,6	0,013
431	0,014
431,5	0,013
431,9	0,014
432,4	0,014
432,8	0,014
433,3	0,014
433,8	0,014
434,2	0,014
434,7	0,015
435,1	0,014
435,6	0,014
436	0,014
436,5	0,014
436,9	0,014
437,4	0,015
437,8	0,014
438,3	0,014
438,8	0,015
439,2	0,015
439,7	0,015
440,1	0,015
440,6	0,014
441	0,014
441,5	0,014
441,9	0,014
442,4	0,014
442,8	0,013
443,3	0,013
443,7	0,014
444,2	0,013
444,7	0,013
445,1	0,013
445,6	0,013
446	0,013
446,5	0,013
446,9	0,013
447,4	0,014
447,8	0,014
448,3	0,013
448,7	0,014
449,2	0,014
449,6	0,014
450,1	0,014
450,6	0,014
451	0,014
451,5	0,014
451,9	0,014
452,4	0,014
452,8	0,013
453,3	0,013
453,7	0,013
454,2	0,013
454,6	0,013
455,1	0,013
455,5	0,013
456	0,014
456,4	0,014
456,9	0,014
457,3	0,014
457,8	0,014
458,3	0,013
458,7	0,013
459,2	0,013
459,6	0,013
460,1	0,013
460,5	0,013
461	0,013
461,4	0,013
461,9	0,013
462,3	0,013
462,8	0,013
463,2	0,013
463,7	0,013
464,1	0,013
464,6	0,012
465	0,012
465,5	0,013
466	0,012
466,4	0,012
466,9	0,012
467,3	0,012
467,8	0,012
468,2	0,012
468,7	0,012
469,1	0,012
469,6	0,012
470	0,012
470,5	0,013
470,9	0,013
471,4	0,013
471,8	0,012
472,3	0,013
472,7	0,013
473,2	0,013
473,6	0,013
474,1	0,013
474,5	0,012
475	0,012
475,4	0,011
475,9	0,011
476,4	0,011
476,8	0,011
477,3	0,011
477,7	0,012
478,2	0,012
478,6	0,012
479,1	0,012
479,5	0,012
480	0,012
480,4	0,012
480,9	0,012
481,3	0,012
481,8	0,012
482,2	0,012
482,7	0,013
483,1	0,014
483,6	0,015
484	0,016
484,5	0,015
484,9	0,012
485,4	0,011
485,8	0,011
486,3	0,01
486,7	0,009
487,2	0,007
487,6	0,007
488,1	0,01
488,5	0,011
489	0,011
489,4	0,012
489,9	0,012
490,4	0,012
490,8	0,012
491,3	0,012
491,7	0,012
492,2	0,012
492,6	0,011
493,1	0,011
493,5	0,011
494	0,011
494,4	0,011
494,9	0,011
495,3	0,011
495,8	0,01
496,2	0,011
496,7	0,011
497,1	0,011
497,6	0,011
498	0,011
498,5	0,011
498,9	0,011
499,4	0,011
499,8	0,011
500,3	0,011
500,7	0,011
501,2	0,011
501,6	0,011
502,1	0,01
502,5	0,01
503	0,01
503,4	0,01
503,9	0,01
504,3	0,01
504,8	0,01
505,2	0,01
505,7	0,01
506,1	0,011
506,6	0,011
507	0,011
507,5	0,011
507,9	0,011
508,4	0,011
508,8	0,011
509,3	0,011
509,7	0,011
510,2	0,011
510,6	0,012
511,1	0,012
511,5	0,012
512	0,012
512,4	0,011
512,9	0,011
513,3	0,011
513,8	0,011
514,2	0,011
514,7	0,011
515,1	0,01
515,6	0,01
516	0,01
516,5	0,01
516,9	0,01
517,4	0,01
517,8	0,01
518,3	0,01
518,7	0,011
519,2	0,011
519,6	0,011
520,1	0,011
520,5	0,01
521	0,01
521,4	0,01
521,9	0,01
522,3	0,01
522,8	0,01
523,2	0,01
523,7	0,01
524,1	0,01
524,6	0,01
525	0,01
525,5	0,009
525,9	0,009
526,4	0,009
526,8	0,009
527,3	0,01
527,7	0,01
528,2	0,01
528,6	0,01
529,1	0,01
529,5	0,011
530	0,01
530,4	0,01
530,9	0,01
531,3	0,01
531,8	0,01
532,2	0,01
532,6	0,01
533,1	0,01
533,5	0,01
534	0,01
534,4	0,01
534,9	0,01
535,3	0,01
535,8	0,009
536,2	0,01
536,7	0,01
537,1	0,01
537,6	0,01
538	0,01
538,5	0,01
538,9	0,011
539,4	0,01
539,8	0,01
540,3	0,009
540,7	0,01
541,2	0,009
541,6	0,009
542,1	0,009
542,5	0,008
543	0,009
543,4	0,009
543,9	0,009
544,3	0,009
544,8	0,009
545,2	0,009
545,7	0,01
546,1	0,01
546,5	0,01
547	0,01
547,4	0,01
547,9	0,01
548,3	0,01
548,8	0,009
549,2	0,009
549,7	0,008
550,1	0,009
550,6	0,009
551	0,009
551,5	0,009
551,9	0,01
552,4	0,01
552,8	0,009
553,3	0,009
553,7	0,009
554,2	0,01
554,6	0,009
555,1	0,009
555,5	0,01
555,9	0,01
556,4	0,01
556,8	0,01
557,3	0,01
557,7	0,01
558,2	0,01
558,6	0,01
559,1	0,01
559,5	0,01
560	0,01
560,4	0,01
560,9	0,009
561,3	0,008
561,8	0,008
562,2	0,008
562,7	0,008
563,1	0,008
563,6	0,008
564	0,008
564,4	0,009
564,9	0,009
565,3	0,01
565,8	0,01
566,2	0,01
566,7	0,01
567,1	0,01
567,6	0,01
568	0,01
568,5	0,01
568,9	0,01
569,4	0,01
569,8	0,01
570,3	0,009
570,7	0,009
571,1	0,009
571,6	0,009
572	0,009
572,5	0,008
572,9	0,008
573,4	0,008
573,8	0,008
574,3	0,008
574,7	0,009
575,2	0,009
575,6	0,009
576,1	0,009
576,5	0,009
576,9	0,008
577,4	0,008
577,8	0,008
578,3	0,007
578,7	0,007
579,2	0,008
579,6	0,009
580,1	0,009
580,5	0,009
581	0,008
581,4	0,008
581,9	0,008
582,3	0,008
582,7	0,007
583,2	0,007
583,6	0,008
584,1	0,008
584,5	0,008
585	0,008
585,4	0,009
585,9	0,008
586,3	0,008
586,8	0,008
587,2	0,008
587,6	0,008
588,1	0,008
588,5	0,007
589	0,007
589,4	0,007
589,9	0,008
590,3	0,008
590,8	0,009
591,2	0,009
591,7	0,009
592,1	0,009
592,5	0,008
593	0,008
593,4	0,008
593,9	0,007
594,3	0,007
594,8	0,007
595,2	0,007
595,7	0,008
596,1	0,008
596,6	0,008
597	0,008
597,4	0,008
597,9	0,008
598,3	0,008
598,8	0,008
599,2	0,008
599,7	0,008
600,1	0,007
600,6	0,007
601	0,007
601,4	0,007
601,9	0,007
602,3	0,007
602,8	0,007
603,2	0,007
603,7	0,007
604,1	0,007
604,6	0,006
605	0,007
605,4	0,007
605,9	0,007
606,3	0,007
606,8	0,007
607,2	0,007
607,7	0,008
608,1	0,009
608,6	0,009
609	0,009
609,4	0,009
609,9	0,009
610,3	0,009
610,8	0,009
611,2	0,008
611,7	0,008
612,1	0,008
612,6	0,007
613	0,007
613,4	0,007
613,9	0,007
614,3	0,007
614,8	0,006
615,2	0,007
615,7	0,007
616,1	0,007
616,6	0,007
617	0,007
617,4	0,007
617,9	0,007
618,3	0,007
618,8	0,007
619,2	0,006
619,7	0,007
620,1	0,007
620,5	0,007
621	0,007
621,4	0,007
621,9	0,007
622,3	0,007
622,8	0,007
623,2	0,006
623,6	0,007
624,1	0,006
624,5	0,006
625	0,006
625,4	0,006
625,9	0,006
626,3	0,006
626,8	0,006
627,2	0,007
627,6	0,007
628,1	0,007
628,5	0,007
629	0,007
629,4	0,007
629,9	0,007
630,3	0,007
630,7	0,006
631,2	0,006
631,6	0,006
632,1	0,006
632,5	0,006
633	0,006
633,4	0,007
633,8	0,007
634,3	0,007
634,7	0,007
635,2	0,007
635,6	0,007
636,1	0,007
636,5	0,007
636,9	0,007
637,4	0,006
637,8	0,006
638,3	0,006
638,7	0,006
639,2	0,006
639,6	0,006
640	0,007
640,5	0,007
640,9	0,007
641,4	0,007
641,8	0,007
642,2	0,007
642,7	0,007
643,1	0,006
643,6	0,006
644	0,006
644,5	0,006
644,9	0,006
645,3	0,006
645,8	0,007
646,2	0,007
646,7	0,007
647,1	0,007
647,6	0,007
648	0,007
648,4	0,007
648,9	0,007
649,3	0,007
649,8	0,007
650,2	0,007
650,6	0,007
651,1	0,007
651,5	0,008
652	0,008
652,4	0,008
652,9	0,009
653,3	0,013
653,7	0,022
654,2	0,015
654,6	0,012
655,1	0,009
655,5	0,006
655,9	0,006
656,4	0,004
656,8	-0,001
657,3	-0,001
657,7	-0,001
658,2	-0
658,6	0,006
659	0,007
659,5	0,006
659,9	0,006
660,4	0,006
660,8	0,007
661,2	0,007
661,7	0,008
662,1	0,007
662,6	0,007
663	0,007
663,4	0,007
663,9	0,007
664,3	0,006
664,8	0,006
665,2	0,006
665,6	0,006
666,1	0,006
666,5	0,006
667	0,005
667,4	0,006
667,9	0,006
668,3	0,006
668,7	0,006
669,2	0,006
669,6	0,006
670,1	0,007
670,5	0,007
670,9	0,006
671,4	0,007
671,8	0,007
672,3	0,006
672,7	0,006
673,1	0,006
673,6	0,006
674	0,006
674,5	0,006
674,9	0,006
675,3	0,006
675,8	0,006
676,2	0,006
676,7	0,006
677,1	0,006
677,5	0,006
678	0,006
678,4	0,006
678,9	0,006
679,3	0,006
679,7	0,007
680,2	0,006
680,6	0,006
681,1	0,006
681,5	0,007
681,9	0,007
682,4	0,007
682,8	0,007
683,3	0,007
683,7	0,007
684,1	0,007
684,6	0,006
685	0,006
685,5	0,006
685,9	0,006
686,3	0,006
686,8	0,006
687,2	0,006
687,7	0,007
688,1	0,007
688,5	0,007
689	0,007
689,4	0,007
689,9	0,007
690,3	0,007
690,7	0,007
691,2	0,007
691,6	0,007
692	0,007
692,5	0,006
692,9	0,006
693,4	0,006
693,8	0,005
694,2	0,005
694,7	0,006
695,1	0,006
695,6	0,007
696	0,007
696,4	0,006
696,9	0,006
697,3	0,007
697,8	0,006
698,2	0,006
698,6	0,005
699,1	0,006
699,5	0,006
699,9	0,006
700,4	0,006
700,8	0,005
701,3	0,005
701,7	0,005
702,1	0,005
702,6	0,006
703	0,006
703,5	0,005
703,9	0,005
704,3	0,005
704,8	0,006
705,2	0,006
705,6	0,006
706,1	0,006
706,5	0,006
707	0,006
707,4	0,006
707,8	0,006
708,3	0,006
708,7	0,006
709,2	0,006
709,6	0,006
710	0,006
710,5	0,006
710,9	0,006
711,3	0,006
711,8	0,006
712,2	0,006
712,7	0,006
713,1	0,006
713,5	0,006
714	0,005
714,4	0,005
714,8	0,005
715,3	0,005
715,7	0,005
716,2	0,005
716,6	0,006
717	0,006
717,5	0,006
717,9	0,006
718,3	0,005
718,8	0,006
719,2	0,005
719,7	0,005
720,1	0,005
720,5	0,005
721	0,006
721,4	0,006
721,8	0,006
722,3	0,006
722,7	0,006
723,2	0,006
723,6	0,006
724	0,007
724,5	0,007
724,9	0,007
725,3	0,007
725,8	0,007
726,2	0,007
726,7	0,007
727,1	0,006
727,5	0,007
728	0,007
728,4	0,007
728,8	0,006
729,3	0,006
729,7	0,006
730,1	0,006
730,6	0,005
731	0,005
731,5	0,005
731,9	0,005
732,3	0,006
732,8	0,006
733,2	0,006
733,6	0,006
734,1	0,006
734,5	0,005
734,9	0,005
735,4	0,005
735,8	0,005
736,3	0,005
736,7	0,005
737,1	0,005
737,6	0,006
738	0,005
738,4	0,005
738,9	0,005
739,3	0,005
739,7	0,004
740,2	0,004
740,6	0,004
741,1	0,004
741,5	0,004
741,9	0,004
742,4	0,005
742,8	0,005
743,2	0,005
743,7	0,005
744,1	0,005
744,5	0,005
745	0,005
745,4	0,005
745,8	0,005
746,3	0,005
746,7	0,005
747,2	0,005
747,6	0,006
748	0,006
748,5	0,006
748,9	0,006
749,3	0,006
749,8	0,006
750,2	0,005
750,6	0,005
751,1	0,005
751,5	0,005
751,9	0,005
752,4	0,005
752,8	0,005
753,3	0,005
753,7	0,005
754,1	0,005
754,6	0,005
755	0,006
755,4	0,006
755,9	0,006
756,3	0,006
756,7	0,006
757,2	0,006
757,6	0,006
758	0,006
758,5	0,006
758,9	0,006
759,3	0,005
759,8	0,005
760,2	0,005
760,6	0,005
761,1	0,005
761,5	0,005
761,9	0,005
762,4	0,005
762,8	0,006
763,3	0,006
763,7	0,006
764,1	0,006
764,6	0,006
765	0,006
765,4	0,006
765,9	0,006
766,3	0,006
766,7	0,006
767,2	0,007
767,6	0,007
768	0,007
768,5	0,007
768,9	0,007
769,3	0,007
769,8	0,006
770,2	0,006
770,6	0,006
771,1	0,006
771,5	0,006
771,9	0,005
772,4	0,005
772,8	0,005
773,2	0,006
773,7	0,006
774,1	0,005
774,5	0,005
775	0,005
775,4	0,005
775,8	0,005
776,3	0,005
776,7	0,005
777,1	0,005
777,6	0,005
778	0,005
778,4	0,005
778,9	0,005
779,3	0,005
779,7	0,005
780,2	0,005
780,6	0,005
781	0,005
781,5	0,005
781,9	0,005
782,3	0,005
782,8	0,005
783,2	0,005
783,6	0,005
784,1	0,005
784,5	0,005
784,9	0,005
785,4	0,005
785,8	0,006
786,2	0,006
786,7	0,006
787,1	0,006
787,5	0,006
788	0,006
788,4	0,005
788,8	0,005
789,3	0,005
789,7	0,005
790,1	0,005
790,6	0,005
791	0,005
791,4	0,005
791,9	0,005
792,3	0,006
792,7	0,006
793,2	0,005
793,6	0,005
794	0,006
794,5	0,006
794,9	0,006
795,3	0,005
795,8	0,005
796,2	0,006
796,6	0,006
797,1	0,006
797,5	0,006
797,9	0,005
798,4	0,005
798,8	0,005
799,2	0,005
799,7	0,005
800,1	0,004
800,5	0,004
801	0,004
801,4	0,004
801,8	0,004
802,2	0,004
802,7	0,004
803,1	0,004
803,5	0,005
804	0,005
804,4	0,005
804,8	0,005
805,3	0,005
805,7	0,005
806,1	0,006
806,6	0,006
807	0,006
807,4	0,005
807,9	0,005
808,3	0,005
808,7	0,005
809,2	0,005
809,6	0,005
810	0,006
810,4	0,006
810,9	0,006
811,3	0,005
811,7	0,006
812,2	0,006
812,6	0,005
813	0,005
813,5	0,006
813,9	0,006
814,3	0,006
814,8	0,006
815,2	0,006
815,6	0,007
816,1	0,007
816,5	0,007
816,9	0,007
817,3	0,006
817,8	0,007
818,2	0,006
818,6	0,006
819,1	0,006
819,5	0,006
819,9	0,005
820,4	0,005
820,8	0,005
821,2	0,005
821,7	0,006
822,1	0,006
822,5	0,006
822,9	0,006
823,4	0,006
823,8	0,005
824,2	0,005
824,7	0,004
825,1	0,004
825,5	0,004
826	0,004
826,4	0,005
826,8	0,005
827,3	0,005
827,7	0,005
828,1	0,005
828,5	0,005
829	0,006
829,4	0,006
829,8	0,006
830,3	0,006
830,7	0,005
831,1	0,006
831,6	0,005
832	0,004
832,4	0,004
832,8	0,004
833,3	0,004
833,7	0,005
834,1	0,005
834,6	0,005
835	0,005
835,4	0,005
835,8	0,005
836,3	0,005
836,7	0,005
837,1	0,006
837,6	0,006
838	0,005
838,4	0,005
838,9	0,005
839,3	0,005
839,7	0,005
840,1	0,005
840,6	0,005
841	0,005
841,4	0,006
841,9	0,006
842,3	0,006
842,7	0,006
843,1	0,006
843,6	0,007
844	0,007
844,4	0,006
844,9	0,007
845,3	0,006
845,7	0,006
846,2	0,006
846,6	0,006
847	0,006
847,4	0,006
847,9	0,006
848,3	0,006
848,7	0,006
849,2	0,006
849,6	0,006
850	0,006
850,4	0,007
850,9	0,007
851,3	0,006
851,7	0,006
852,2	0,005
852,6	0,005
853	0,005
853,4	0,004
853,9	0,004
854,3	0,004
854,7	0,005
855,2	0,005
855,6	0,005
856	0,005
856,4	0,005
856,9	0,005
857,3	0,005
857,7	0,005
858,2	0,005
858,6	0,005
859	0,005
859,4	0,005
859,9	0,005
860,3	0,006
860,7	0,006
861,1	0,006
861,6	0,007
862	0,007
862,4	0,007
862,9	0,007
863,3	0,007
863,7	0,007
864,1	0,007
864,6	0,006
865	0,006
865,4	0,006
865,9	0,006
866,3	0,007
866,7	0,007
867,1	0,006
867,6	0,006
868	0,006
868,4	0,006
868,8	0,006
869,3	0,006
869,7	0,006
870,1	0,006
870,6	0,006
871	0,006
871,4	0,005
871,8	0,005
872,3	0,005
872,7	0,006
873,1	0,006
873,5	0,006
874	0,006
874,4	0,006
874,8	0,006
875,3	0,006
875,7	0,005
876,1	0,005
876,5	0,005
877	0,005
877,4	0,005
877,8	0,005
878,2	0,005
878,7	0,005
879,1	0,005
879,5	0,005
879,9	0,005
880,4	0,005
880,8	0,005
881,2	0,006
881,7	0,006
882,1	0,006
882,5	0,006
882,9	0,006
883,4	0,006
883,8	0,006
884,2	0,005
884,6	0,005
885,1	0,005
885,5	0,005
885,9	0,005
886,3	0,005
886,8	0,005
887,2	0,005
887,6	0,005
888	0,005
888,5	0,004
888,9	0,004
889,3	0,004
889,8	0,004
890,2	0,004
890,6	0,004
891	0,005
891,5	0,005
891,9	0,005
892,3	0,005
892,7	0,006
893,2	0,006
893,6	0,006
894	0,006
894,4	0,006
894,9	0,006
895,3	0,006
895,7	0,006
896,1	0,006
896,6	0,006
897	0,005
897,4	0,005
897,8	0,006
898,3	0,005
898,7	0,005
899,1	0,006
899,5	0,006
900	0,006
900,4	0,006
900,8	0,006
901,2	0,006
901,7	0,006
902,1	0,006
902,5	0,005
902,9	0,005
903,4	0,005
903,8	0,005
904,2	0,005
904,6	0,004
905,1	0,004
905,5	0,005
905,9	0,004
906,3	0,005
906,8	0,005
907,2	0,005
907,6	0,005
908	0,005
908,5	0,005
908,9	0,005
909,3	0,005
909,7	0,005
910,2	0,005
910,6	0,005
911	0,005
911,4	0,005
911,9	0,005
912,3	0,006
912,7	0,006
913,1	0,006
913,6	0,006
914	0,006
914,4	0,006
914,8	0,006
915,3	0,006
915,7	0,006
916,1	0,006
916,5	0,006
916,9	0,005
917,4	0,005
917,8	0,005
918,2	0,005
918,6	0,005
919,1	0,005
919,5	0,005
919,9	0,005
920,3	0,005
920,8	0,005
921,2	0,005
921,6	0,006
922	0,006
922,5	0,005
922,9	0,005
923,3	0,006
923,7	0,006
924,2	0,006
924,6	0,005
925	0,006
925,4	0,006
925,8	0,006
926,3	0,005
926,7	0,005
927,1	0,005
927,5	0,005
928	0,004
928,4	0,004
928,8	0,003
929,2	0,003
929,7	0,004
930,1	0,003
930,5	0,004
930,9	0,004
931,3	0,004
931,8	0,005
932,2	0,004
932,6	0,004
933	0,004
933,5	0,004
933,9	0,003
934,3	0,004
934,7	0,004
935,2	0,004
935,6	0,004
936	0,004
936,4	0,005
936,8	0,005
937,3	0,005
937,7	0,005
938,1	0,005
938,5	0,005
939	0,004
939,4	0,004
939,8	0,004
940,2	0,005
940,6	0,004
941,1	0,004
941,5	0,004
941,9	0,004
942,3	0,004
942,8	0,003
943,2	0,003
943,6	0,003
944	0,004
944,4	0,004
944,9	0,005
945,3	0,005
945,7	0,006
946,1	0,006
946,6	0,007
947	0,007
947,4	0,007
947,8	0,007
948,2	0,008
948,7	0,008
949,1	0,007
949,5	0,006
949,9	0,006
950,3	0,006
950,8	0,006
951,2	0,006
951,6	0,005
952	0,005
952,5	0,005
952,9	0,005
953,3	0,005
953,7	0,005
954,1	0,005
954,6	0,005
955	0,005
955,4	0,005
955,8	0,005
956,2	0,005
956,7	0,005
957,1	0,005
957,5	0,006
957,9	0,005
958,3	0,005
958,8	0,004
959,2	0,004
959,6	0,004
960	0,004
960,5	0,004
960,9	0,003
961,3	0,004
961,7	0,004
962,1	0,004
962,6	0,004
963	0,004
963,4	0,004
963,8	0,005
964,2	0,005
964,7	0,004
965,1	0,004
965,5	0,004
965,9	0,004
966,3	0,004
966,8	0,004
967,2	0,004
967,6	0,004
968	0,004
968,4	0,004
968,9	0,003
969,3	0,003
969,7	0,003
970,1	0,003
970,5	0,003
971	0,004
971,4	0,004
971,8	0,004
972,2	0,004
972,6	0,005
973,1	0,005
973,5	0,005
973,9	0,004
974,3	0,004
974,7	0,004
975,2	0,004
975,6	0,004
976	0,004
976,4	0,005
976,8	0,006
977,3	0,006
977,7	0,006
978,1	0,007
978,5	0,006
978,9	0,006
979,4	0,006
979,8	0,006
980,2	0,006
980,6	0,007
981	0,007
981,5	0,007
981,9	0,006
982,3	0,006
982,7	0,006
983,1	0,006
983,6	0,005
984	0,005
984,4	0,005
984,8	0,005
985,2	0,005
985,6	0,005
986,1	0,006
986,5	0,006
986,9	0,006
987,3	0,006
987,7	0,006
988,2	0,006
988,6	0,006
989	0,006
989,4	0,005
989,8	0,006
990,3	0,006
990,7	0,006
991,1	0,007
991,5	0,007
991,9	0,008
992,3	0,008
992,8	0,007
993,2	0,007
993,6	0,007
994	0,006
994,4	0,006
994,9	0,006
995,3	0,006
995,7	0,006
996,1	0,006
996,5	0,006
996,9	0,006
997,4	0,007
997,8	0,007
998,2	0,006
998,6	0,007
999	0,008
999,5	0,008
999,9	0,007
1000,3	0,007
1000,7	0,007
1001,1	0,007
1001,5	0,007
1002	0,006
1002,4	0,006
1002,8	0,006
1003,2	0,006
1003,6	0,006
1004	0,007
1004,5	0,007
1004,9	0,006
1005,3	0,007
1005,7	0,007
1006,1	0,008
1006,6	0,008
1007	0,008
1007,4	0,008
1007,8	0,009
1008,2	0,008
1008,6	0,008
1009,1	0,007
1009,5	0,006
1009,9	0,006
1010,3	0,006
1010,7	0,006
1011,1	0,006
1011,6	0,007
1012	0,007
1012,4	0,007
1012,8	0,007
1013,2	0,007
1013,6	0,008
1014,1	0,008
1014,5	0,007
1014,9	0,007
1015,3	0,007
1015,7	0,007
1016,1	0,007
1016,6	0,007
1017	0,008
1017,4	0,008
1017,8	0,009
1018,2	0,009
1018,6	0,009
1019,1	0,01
1019,5	0,01
1019,9	0,009
1020,3	0,009
1020,7	0,009
1021,1	0,008
1021,6	0,008
1022	0,008
1022,4	0,007
1022,8	0,008
1023,2	0,008
1023,6	0,008
1024,1	0,008
1024,5	0,009
1024,9	0,009
1025,3	0,009
1025,7	0,009
1026,1	0,009
1026,6	0,009
1027	0,009
1027,4	0,009
1027,8	0,01
1028,2	0,01
1028,6	0,01
1029	0,01
1029,5	0,011
1029,9	0,011
1030,3	0,01
1030,7	0,01
1031,1	0,01
1031,5	0,01
1032	0,01
1032,4	0,01
1032,8	0,01
1033,2	0,011
1033,6	0,011
1034	0,011
1034,4	0,011
1034,9	0,012
1035,3	0,011
1035,7	0,011
1036,1	0,01
1036,5	0,01
1036,9	0,01
1037,4	0,01
1037,8	0,01
1038,2	0,01
1038,6	0,01
1039	0,01
1039,4	0,01
1039,8	0,01
1040,3	0,01
1040,7	0,01
1041,1	0,01
1041,5	0,01
1041,9	0,01
1042,3	0,01
1042,7	0,011
1043,2	0,01
1043,6	0,01
1044	0,01
1044,4	0,011
1044,8	0,01
1045,2	0,01
1045,6	0,01
1046,1	0,01
1046,5	0,01
1046,9	0,009
1047,3	0,009
1047,7	0,009
1048,1	0,009
1048,5	0,01
1049	0,01
1049,4	0,01
1049,8	0,01
1050,2	0,01
1050,6	0,01
1051	0,009
1051,4	0,009
1051,9	0,009
1052,3	0,009
1052,7	0,009
1053,1	0,01
1053,5	0,01
1053,9	0,01
1054,3	0,01
1054,8	0,009
1055,2	0,009
1055,6	0,009
1056	0,008
1056,4	0,007
1056,8	0,007
1057,2	0,008
1057,6	0,007
1058,1	0,007
1058,5	0,008
1058,9	0,009
1059,3	0,009
1059,7	0,01
1060,1	0,011
1060,5	0,012
1061	0,012
1061,4	0,011
1061,8	0,011
1062,2	0,011
1062,6	0,012
1063	0,011
1063,4	0,011
1063,8	0,012
1064,3	0,012
1064,7	0,011
1065,1	0,011
1065,5	0,01
1065,9	0,011
1066,3	0,01
1066,7	0,011
1067,1	0,011
1067,6	0,01
1068	0,01
1068,4	0,01
1068,8	0,01
1069,2	0,01
1069,6	0,009
1070	0,009
1070,4	0,01
1070,9	0,01
1071,3	0,01
1071,7	0,011
1072,1	0,011
1072,5	0,012
1072,9	0,013
1073,3	0,013
1073,7	0,014
1074,2	0,015
1074,6	0,015
1075	0,016
1075,4	0,016
1075,8	0,017
1076,2	0,017
1076,6	0,016
1077	0,016
1077,5	0,015
1077,9	0,015
1078,3	0,015
1078,7	0,012
1079,1	0,012
1079,5	0,012
1079,9	0,012
1080,3	0,013
1080,7	0,014
1081,2	0,013
1081,6	0,014
1082	0,016
1082,4	0,019
1082,8	0,017
1083,2	0,016
1083,6	0,015
1084	0,016
1084,5	0,017
1084,9	0,016
1085,3	0,013
1085,7	0,013
1086,1	0,013
1086,5	0,015
1086,9	0,016
1087,3	0,016
1087,7	0,018
1088,2	0,02
1088,6	0,024
1089	0,027
1089,4	0,025
1089,8	0,023
1090,2	0,02
1090,6	0,022
1091	0,022
1091,4	0,018
1091,9	0,019
1092,3	0,018
1092,7	0,017
1093,1	0,024
1093,5	0,023
1093,9	0,024
1094,3	0,026
1094,7	0,024
1095,1	0,03
1095,5	0,037
1096	0,04
1096,4	0,04
1096,8	0,038
1097,2	0,042
1097,6	0,047
1098	0,048
1098,4	0,047
1098,8	0,044
1099,2	0,052
1099,6	0,058
1100,1	0,062
1100,5	0,065
1100,9	0,056
1101,3	0,057
1101,7	0,065
1102,1	0,058
1102,5	0,073
1102,9	0,073
1103,3	0,074
1103,7	0,094
1104,2	0,101
1104,6	0,096
1105	0,099
1105,4	0,09
1105,8	0,09
1106,2	0,085
1106,6	0,081
1107	0,081
1107,4	0,075
1107,8	0,076
1108,3	-0,227
