Data from Absorbance_155.txt Node
Date: Fri Nov 13 20:02:01 MSK 2020
User: vat
Spectrometer: MAYP114033
Trigger mode: 0
Integration Time (sec): 8,000000E-3
Scans to average: 10
Electric dark correction enabled: true
Nonlinearity correction enabled: false
Boxcar width: 3
XAxis mode: Wavelengths
Number of Pixels in Spectrum: 2068
>>>>>Begin Spectral Data<<<<<
199,4	1,484
199,9	0,309
200,4	0,194
200,8	0,111
201,3	0,063
201,8	0,058
202,2	0,066
202,7	0,094
203,2	0,091
203,6	0,095
204,1	0,107
204,6	0,112
205	0,099
205,5	0,1
206	0,096
206,4	0,077
206,9	0,062
207,4	0,055
207,8	0,069
208,3	0,076
208,8	0,068
209,2	0,071
209,7	0,084
210,2	0,08
210,6	0,076
211,1	0,072
211,5	0,065
212	0,065
212,5	0,039
212,9	0,04
213,4	0,039
213,9	0,044
214,3	0,038
214,8	0,035
215,3	0,053
215,7	0,06
216,2	0,054
216,7	0,057
217,1	0,074
217,6	0,075
218,1	0,086
218,5	0,071
219	0,073
219,5	0,085
219,9	0,103
220,4	0,085
220,9	0,101
221,3	0,088
221,8	0,091
222,3	0,099
222,7	0,094
223,2	0,11
223,6	0,115
224,1	0,113
224,6	0,133
225	0,15
225,5	0,146
226	0,144
226,4	0,122
226,9	0,125
227,4	0,112
227,8	0,115
228,3	0,099
228,8	0,107
229,2	0,117
229,7	0,113
230,2	0,1
230,6	0,107
231,1	0,107
231,5	0,099
232	0,099
232,5	0,101
232,9	0,116
233,4	0,139
233,9	0,136
234,3	0,137
234,8	0,153
235,3	0,141
235,7	0,142
236,2	0,147
236,7	0,146
237,1	0,16
237,6	0,145
238,1	0,144
238,5	0,152
239	0,152
239,4	0,137
239,9	0,133
240,4	0,136
240,8	0,154
241,3	0,161
241,8	0,166
242,2	0,162
242,7	0,175
243,2	0,175
243,6	0,179
244,1	0,174
244,6	0,165
245	0,164
245,5	0,18
245,9	0,19
246,4	0,196
246,9	0,193
247,3	0,203
247,8	0,212
248,3	0,225
248,7	0,224
249,2	0,228
249,7	0,233
250,1	0,242
250,6	0,24
251	0,243
251,5	0,242
252	0,24
252,4	0,241
252,9	0,239
253,4	0,239
253,8	0,242
254,3	0,248
254,8	0,25
255,2	0,254
255,7	0,258
256,1	0,265
256,6	0,27
257,1	0,275
257,5	0,279
258	0,286
258,5	0,294
258,9	0,302
259,4	0,309
259,9	0,315
260,3	0,324
260,8	0,332
261,2	0,34
261,7	0,348
262,2	0,356
262,6	0,364
263,1	0,373
263,6	0,383
264	0,393
264,5	0,403
264,9	0,413
265,4	0,423
265,9	0,432
266,3	0,443
266,8	0,453
267,3	0,461
267,7	0,471
268,2	0,48
268,7	0,49
269,1	0,501
269,6	0,511
270	0,521
270,5	0,53
271	0,54
271,4	0,55
271,9	0,559
272,4	0,568
272,8	0,576
273,3	0,585
273,7	0,595
274,2	0,604
274,7	0,611
275,1	0,619
275,6	0,628
276,1	0,635
276,5	0,642
277	0,648
277,4	0,654
277,9	0,66
278,4	0,665
278,8	0,67
279,3	0,675
279,8	0,677
280,2	0,681
280,7	0,683
281,1	0,685
281,6	0,687
282,1	0,688
282,5	0,689
283	0,689
283,4	0,688
283,9	0,686
284,4	0,684
284,8	0,682
285,3	0,678
285,8	0,675
286,2	0,671
286,7	0,665
287,1	0,66
287,6	0,654
288,1	0,647
288,5	0,64
289	0,631
289,5	0,623
289,9	0,614
290,4	0,606
290,8	0,595
291,3	0,586
291,8	0,575
292,2	0,564
292,7	0,552
293,1	0,54
293,6	0,527
294,1	0,514
294,5	0,501
295	0,487
295,5	0,474
295,9	0,46
296,4	0,447
296,8	0,433
297,3	0,419
297,8	0,405
298,2	0,392
298,7	0,377
299,1	0,364
299,6	0,35
300,1	0,337
300,5	0,324
301	0,311
301,5	0,299
301,9	0,287
302,4	0,275
302,8	0,263
303,3	0,252
303,8	0,241
304,2	0,23
304,7	0,219
305,1	0,209
305,6	0,2
306,1	0,191
306,5	0,182
307	0,174
307,4	0,166
307,9	0,159
308,4	0,151
308,8	0,144
309,3	0,138
309,8	0,132
310,2	0,126
310,7	0,12
311,1	0,115
311,6	0,11
312,1	0,106
312,5	0,101
313	0,097
313,4	0,093
313,9	0,089
314,4	0,085
314,8	0,082
315,3	0,079
315,7	0,076
316,2	0,074
316,7	0,071
317,1	0,069
317,6	0,067
318	0,065
318,5	0,063
319	0,061
319,4	0,059
319,9	0,058
320,3	0,056
320,8	0,055
321,3	0,054
321,7	0,052
322,2	0,051
322,6	0,05
323,1	0,05
323,6	0,049
324	0,048
324,5	0,047
324,9	0,047
325,4	0,047
325,9	0,046
326,3	0,045
326,8	0,045
327,2	0,044
327,7	0,044
328,2	0,043
328,6	0,043
329,1	0,043
329,5	0,042
330	0,042
330,5	0,041
330,9	0,041
331,4	0,041
331,8	0,041
332,3	0,041
332,8	0,04
333,2	0,04
333,7	0,04
334,1	0,039
334,6	0,04
335,1	0,039
335,5	0,039
336	0,039
336,4	0,039
336,9	0,039
337,4	0,039
337,8	0,039
338,3	0,039
338,7	0,039
339,2	0,039
339,7	0,038
340,1	0,038
340,6	0,038
341	0,037
341,5	0,037
342	0,037
342,4	0,037
342,9	0,037
343,3	0,037
343,8	0,037
344,2	0,037
344,7	0,037
345,2	0,037
345,6	0,037
346,1	0,037
346,5	0,036
347	0,036
347,5	0,036
347,9	0,036
348,4	0,036
348,8	0,035
349,3	0,035
349,8	0,035
350,2	0,035
350,7	0,035
351,1	0,034
351,6	0,034
352	0,034
352,5	0,034
353	0,034
353,4	0,034
353,9	0,034
354,3	0,034
354,8	0,033
355,3	0,034
355,7	0,033
356,2	0,033
356,6	0,033
357,1	0,034
357,5	0,034
358	0,034
358,5	0,034
358,9	0,034
359,4	0,034
359,8	0,034
360,3	0,034
360,8	0,034
361,2	0,034
361,7	0,034
362,1	0,033
362,6	0,033
363	0,033
363,5	0,033
364	0,032
364,4	0,032
364,9	0,032
365,3	0,032
365,8	0,032
366,3	0,032
366,7	0,031
367,2	0,031
367,6	0,031
368,1	0,031
368,5	0,031
369	0,031
369,5	0,03
369,9	0,03
370,4	0,031
370,8	0,03
371,3	0,03
371,7	0,03
372,2	0,03
372,7	0,03
373,1	0,03
373,6	0,03
374	0,03
374,5	0,03
374,9	0,03
375,4	0,031
375,9	0,03
376,3	0,03
376,8	0,03
377,2	0,03
377,7	0,03
378,2	0,03
378,6	0,03
379,1	0,029
379,5	0,029
380	0,029
380,4	0,029
380,9	0,029
381,4	0,028
381,8	0,028
382,3	0,028
382,7	0,027
383,2	0,028
383,6	0,028
384,1	0,028
384,6	0,028
385	0,028
385,5	0,028
385,9	0,028
386,4	0,028
386,8	0,028
387,3	0,028
387,7	0,028
388,2	0,028
388,7	0,028
389,1	0,028
389,6	0,028
390	0,028
390,5	0,028
390,9	0,027
391,4	0,027
391,9	0,027
392,3	0,027
392,8	0,027
393,2	0,027
393,7	0,027
394,1	0,027
394,6	0,027
395,1	0,027
395,5	0,027
396	0,027
396,4	0,027
396,9	0,026
397,3	0,026
397,8	0,026
398,2	0,026
398,7	0,026
399,2	0,026
399,6	0,026
400,1	0,026
400,5	0,026
401	0,026
401,4	0,026
401,9	0,026
402,4	0,025
402,8	0,025
403,3	0,024
403,7	0,024
404,2	0,024
404,6	0,024
405,1	0,024
405,5	0,024
406	0,024
406,5	0,024
406,9	0,024
407,4	0,024
407,8	0,024
408,3	0,024
408,7	0,024
409,2	0,024
409,6	0,024
410,1	0,023
410,6	0,023
411	0,024
411,5	0,023
411,9	0,024
412,4	0,024
412,8	0,024
413,3	0,024
413,7	0,024
414,2	0,025
414,7	0,025
415,1	0,025
415,6	0,025
416	0,024
416,5	0,025
416,9	0,024
417,4	0,024
417,8	0,024
418,3	0,024
418,8	0,024
419,2	0,024
419,7	0,024
420,1	0,024
420,6	0,024
421	0,024
421,5	0,024
421,9	0,024
422,4	0,024
422,8	0,024
423,3	0,024
423,8	0,024
424,2	0,023
424,7	0,024
425,1	0,024
425,6	0,023
426	0,023
426,5	0,023
426,9	0,023
427,4	0,023
427,9	0,023
428,3	0,022
428,8	0,022
429,2	0,022
429,7	0,022
430,1	0,023
430,6	0,023
431	0,023
431,5	0,023
431,9	0,023
432,4	0,023
432,8	0,023
433,3	0,023
433,8	0,023
434,2	0,023
434,7	0,022
435,1	0,022
435,6	0,022
436	0,022
436,5	0,021
436,9	0,021
437,4	0,021
437,8	0,021
438,3	0,02
438,8	0,021
439,2	0,021
439,7	0,021
440,1	0,021
440,6	0,022
441	0,022
441,5	0,022
441,9	0,022
442,4	0,022
442,8	0,023
443,3	0,023
443,7	0,023
444,2	0,022
444,7	0,022
445,1	0,022
445,6	0,023
446	0,023
446,5	0,023
446,9	0,023
447,4	0,022
447,8	0,022
448,3	0,022
448,7	0,021
449,2	0,021
449,6	0,021
450,1	0,02
450,6	0,021
451	0,021
451,5	0,021
451,9	0,022
452,4	0,022
452,8	0,022
453,3	0,023
453,7	0,022
454,2	0,022
454,6	0,022
455,1	0,022
455,5	0,022
456	0,022
456,4	0,022
456,9	0,022
457,3	0,022
457,8	0,021
458,3	0,021
458,7	0,02
459,2	0,021
459,6	0,02
460,1	0,02
460,5	0,021
461	0,021
461,4	0,021
461,9	0,021
462,3	0,021
462,8	0,021
463,2	0,021
463,7	0,021
464,1	0,021
464,6	0,02
465	0,021
465,5	0,021
466	0,02
466,4	0,02
466,9	0,02
467,3	0,02
467,8	0,021
468,2	0,02
468,7	0,02
469,1	0,02
469,6	0,02
470	0,02
470,5	0,02
470,9	0,02
471,4	0,02
471,8	0,02
472,3	0,02
472,7	0,021
473,2	0,021
473,6	0,021
474,1	0,021
474,5	0,02
475	0,02
475,4	0,02
475,9	0,02
476,4	0,02
476,8	0,02
477,3	0,02
477,7	0,02
478,2	0,02
478,6	0,02
479,1	0,02
479,5	0,02
480	0,02
480,4	0,02
480,9	0,02
481,3	0,02
481,8	0,02
482,2	0,02
482,7	0,019
483,1	0,019
483,6	0,019
484	0,019
484,5	0,019
484,9	0,019
485,4	0,019
485,8	0,019
486,3	0,019
486,7	0,02
487,2	0,019
487,6	0,02
488,1	0,019
488,5	0,019
489	0,019
489,4	0,019
489,9	0,018
490,4	0,018
490,8	0,019
491,3	0,019
491,7	0,019
492,2	0,019
492,6	0,02
493,1	0,02
493,5	0,021
494	0,02
494,4	0,02
494,9	0,019
495,3	0,019
495,8	0,019
496,2	0,019
496,7	0,018
497,1	0,019
497,6	0,019
498	0,019
498,5	0,019
498,9	0,018
499,4	0,018
499,8	0,019
500,3	0,018
500,7	0,019
501,2	0,019
501,6	0,019
502,1	0,019
502,5	0,019
503	0,019
503,4	0,019
503,9	0,019
504,3	0,019
504,8	0,019
505,2	0,019
505,7	0,018
506,1	0,018
506,6	0,017
507	0,017
507,5	0,017
507,9	0,017
508,4	0,017
508,8	0,017
509,3	0,017
509,7	0,017
510,2	0,017
510,6	0,017
511,1	0,017
511,5	0,017
512	0,017
512,4	0,017
512,9	0,017
513,3	0,017
513,8	0,017
514,2	0,017
514,7	0,017
515,1	0,017
515,6	0,017
516	0,017
516,5	0,017
516,9	0,017
517,4	0,016
517,8	0,016
518,3	0,017
518,7	0,017
519,2	0,017
519,6	0,017
520,1	0,017
520,5	0,017
521	0,017
521,4	0,017
521,9	0,017
522,3	0,017
522,8	0,017
523,2	0,016
523,7	0,016
524,1	0,016
524,6	0,016
525	0,016
525,5	0,016
525,9	0,016
526,4	0,016
526,8	0,016
527,3	0,017
527,7	0,017
528,2	0,016
528,6	0,016
529,1	0,016
529,5	0,017
530	0,016
530,4	0,017
530,9	0,017
531,3	0,017
531,8	0,017
532,2	0,017
532,6	0,016
533,1	0,016
533,5	0,016
534	0,016
534,4	0,016
534,9	0,016
535,3	0,016
535,8	0,017
536,2	0,016
536,7	0,016
537,1	0,017
537,6	0,017
538	0,017
538,5	0,017
538,9	0,017
539,4	0,017
539,8	0,017
540,3	0,017
540,7	0,017
541,2	0,016
541,6	0,016
542,1	0,016
542,5	0,016
543	0,016
543,4	0,015
543,9	0,016
544,3	0,016
544,8	0,016
545,2	0,015
545,7	0,015
546,1	0,016
546,5	0,015
547	0,015
547,4	0,015
547,9	0,015
548,3	0,015
548,8	0,015
549,2	0,014
549,7	0,015
550,1	0,015
550,6	0,015
551	0,015
551,5	0,015
551,9	0,015
552,4	0,015
552,8	0,015
553,3	0,014
553,7	0,015
554,2	0,014
554,6	0,015
555,1	0,014
555,5	0,014
555,9	0,014
556,4	0,014
556,8	0,014
557,3	0,015
557,7	0,015
558,2	0,015
558,6	0,015
559,1	0,015
559,5	0,015
560	0,015
560,4	0,015
560,9	0,015
561,3	0,014
561,8	0,014
562,2	0,014
562,7	0,014
563,1	0,014
563,6	0,014
564	0,014
564,4	0,014
564,9	0,014
565,3	0,014
565,8	0,013
566,2	0,013
566,7	0,013
567,1	0,014
567,6	0,014
568	0,014
568,5	0,014
568,9	0,014
569,4	0,015
569,8	0,015
570,3	0,014
570,7	0,014
571,1	0,014
571,6	0,014
572	0,014
572,5	0,014
572,9	0,014
573,4	0,014
573,8	0,014
574,3	0,014
574,7	0,014
575,2	0,014
575,6	0,014
576,1	0,014
576,5	0,014
576,9	0,014
577,4	0,014
577,8	0,014
578,3	0,014
578,7	0,013
579,2	0,014
579,6	0,014
580,1	0,014
580,5	0,014
581	0,014
581,4	0,014
581,9	0,014
582,3	0,013
582,7	0,013
583,2	0,013
583,6	0,014
584,1	0,014
584,5	0,014
585	0,014
585,4	0,014
585,9	0,014
586,3	0,014
586,8	0,013
587,2	0,013
587,6	0,013
588,1	0,013
588,5	0,013
589	0,013
589,4	0,013
589,9	0,013
590,3	0,014
590,8	0,014
591,2	0,014
591,7	0,014
592,1	0,013
592,5	0,013
593	0,013
593,4	0,013
593,9	0,013
594,3	0,013
594,8	0,013
595,2	0,013
595,7	0,013
596,1	0,013
596,6	0,013
597	0,013
597,4	0,012
597,9	0,013
598,3	0,013
598,8	0,012
599,2	0,012
599,7	0,012
600,1	0,013
600,6	0,013
601	0,012
601,4	0,012
601,9	0,012
602,3	0,012
602,8	0,012
603,2	0,012
603,7	0,012
604,1	0,012
604,6	0,012
605	0,012
605,4	0,012
605,9	0,012
606,3	0,012
606,8	0,012
607,2	0,012
607,7	0,012
608,1	0,012
608,6	0,012
609	0,012
609,4	0,012
609,9	0,011
610,3	0,011
610,8	0,011
611,2	0,011
611,7	0,012
612,1	0,012
612,6	0,012
613	0,012
613,4	0,012
613,9	0,012
614,3	0,012
614,8	0,012
615,2	0,012
615,7	0,012
616,1	0,012
616,6	0,012
617	0,012
617,4	0,012
617,9	0,012
618,3	0,012
618,8	0,012
619,2	0,013
619,7	0,013
620,1	0,012
620,5	0,012
621	0,012
621,4	0,013
621,9	0,013
622,3	0,013
622,8	0,013
623,2	0,013
623,6	0,013
624,1	0,012
624,5	0,012
625	0,011
625,4	0,011
625,9	0,012
626,3	0,011
626,8	0,011
627,2	0,011
627,6	0,012
628,1	0,011
628,5	0,012
629	0,011
629,4	0,011
629,9	0,011
630,3	0,011
630,7	0,011
631,2	0,011
631,6	0,011
632,1	0,011
632,5	0,011
633	0,011
633,4	0,011
633,8	0,011
634,3	0,011
634,7	0,012
635,2	0,012
635,6	0,012
636,1	0,012
636,5	0,012
636,9	0,011
637,4	0,011
637,8	0,011
638,3	0,011
638,7	0,011
639,2	0,011
639,6	0,011
640	0,011
640,5	0,011
640,9	0,012
641,4	0,012
641,8	0,012
642,2	0,012
642,7	0,012
643,1	0,012
643,6	0,011
644	0,011
644,5	0,01
644,9	0,01
645,3	0,01
645,8	0,01
646,2	0,011
646,7	0,011
647,1	0,011
647,6	0,011
648	0,011
648,4	0,011
648,9	0,011
649,3	0,011
649,8	0,011
650,2	0,011
650,6	0,011
651,1	0,011
651,5	0,011
652	0,011
652,4	0,011
652,9	0,011
653,3	0,011
653,7	0,013
654,2	0,008
654,6	0,006
655,1	0,004
655,5	0,005
655,9	0,005
656,4	0,005
656,8	0,003
657,3	0,004
657,7	0,006
658,2	0,01
658,6	0,01
659	0,01
659,5	0,01
659,9	0,009
660,4	0,01
660,8	0,01
661,2	0,01
661,7	0,01
662,1	0,01
662,6	0,01
663	0,01
663,4	0,01
663,9	0,01
664,3	0,01
664,8	0,01
665,2	0,01
665,6	0,01
666,1	0,01
666,5	0,01
667	0,01
667,4	0,01
667,9	0,01
668,3	0,01
668,7	0,01
669,2	0,01
669,6	0,01
670,1	0,01
670,5	0,01
670,9	0,011
671,4	0,011
671,8	0,011
672,3	0,011
672,7	0,011
673,1	0,011
673,6	0,011
674	0,011
674,5	0,011
674,9	0,011
675,3	0,011
675,8	0,011
676,2	0,011
676,7	0,011
677,1	0,012
677,5	0,012
678	0,012
678,4	0,011
678,9	0,011
679,3	0,01
679,7	0,01
680,2	0,01
680,6	0,01
681,1	0,01
681,5	0,009
681,9	0,01
682,4	0,01
682,8	0,01
683,3	0,01
683,7	0,01
684,1	0,01
684,6	0,01
685	0,01
685,5	0,01
685,9	0,01
686,3	0,01
686,8	0,01
687,2	0,009
687,7	0,009
688,1	0,009
688,5	0,009
689	0,009
689,4	0,009
689,9	0,01
690,3	0,01
690,7	0,01
691,2	0,01
691,6	0,01
692	0,01
692,5	0,01
692,9	0,01
693,4	0,01
693,8	0,01
694,2	0,01
694,7	0,01
695,1	0,01
695,6	0,01
696	0,01
696,4	0,011
696,9	0,01
697,3	0,01
697,8	0,01
698,2	0,01
698,6	0,01
699,1	0,01
699,5	0,01
699,9	0,01
700,4	0,01
700,8	0,01
701,3	0,01
701,7	0,01
702,1	0,009
702,6	0,009
703	0,01
703,5	0,01
703,9	0,01
704,3	0,01
704,8	0,01
705,2	0,011
705,6	0,011
706,1	0,011
706,5	0,011
707	0,011
707,4	0,011
707,8	0,01
708,3	0,01
708,7	0,01
709,2	0,01
709,6	0,01
710	0,01
710,5	0,009
710,9	0,01
711,3	0,009
711,8	0,009
712,2	0,009
712,7	0,009
713,1	0,009
713,5	0,009
714	0,009
714,4	0,009
714,8	0,009
715,3	0,01
715,7	0,009
716,2	0,009
716,6	0,009
717	0,009
717,5	0,009
717,9	0,009
718,3	0,009
718,8	0,009
719,2	0,009
719,7	0,01
720,1	0,01
720,5	0,01
721	0,01
721,4	0,01
721,8	0,011
722,3	0,01
722,7	0,009
723,2	0,009
723,6	0,009
724	0,01
724,5	0,01
724,9	0,01
725,3	0,01
725,8	0,01
726,2	0,01
726,7	0,01
727,1	0,01
727,5	0,009
728	0,009
728,4	0,009
728,8	0,01
729,3	0,01
729,7	0,01
730,1	0,01
730,6	0,01
731	0,01
731,5	0,01
731,9	0,01
732,3	0,01
732,8	0,01
733,2	0,009
733,6	0,009
734,1	0,01
734,5	0,01
734,9	0,01
735,4	0,01
735,8	0,01
736,3	0,01
736,7	0,01
737,1	0,01
737,6	0,01
738	0,011
738,4	0,011
738,9	0,01
739,3	0,011
739,7	0,01
740,2	0,01
740,6	0,01
741,1	0,01
741,5	0,009
741,9	0,009
742,4	0,009
742,8	0,01
743,2	0,01
743,7	0,009
744,1	0,009
744,5	0,01
745	0,01
745,4	0,01
745,8	0,009
746,3	0,009
746,7	0,009
747,2	0,009
747,6	0,009
748	0,009
748,5	0,009
748,9	0,009
749,3	0,009
749,8	0,01
750,2	0,01
750,6	0,01
751,1	0,01
751,5	0,01
751,9	0,009
752,4	0,009
752,8	0,009
753,3	0,009
753,7	0,009
754,1	0,009
754,6	0,009
755	0,009
755,4	0,009
755,9	0,009
756,3	0,009
756,7	0,009
757,2	0,009
757,6	0,009
758	0,009
758,5	0,009
758,9	0,009
759,3	0,009
759,8	0,009
760,2	0,009
760,6	0,009
761,1	0,009
761,5	0,009
761,9	0,009
762,4	0,009
762,8	0,01
763,3	0,01
763,7	0,01
764,1	0,01
764,6	0,01
765	0,01
765,4	0,01
765,9	0,009
766,3	0,01
766,7	0,01
767,2	0,01
767,6	0,01
768	0,01
768,5	0,01
768,9	0,01
769,3	0,01
769,8	0,01
770,2	0,009
770,6	0,009
771,1	0,009
771,5	0,009
771,9	0,009
772,4	0,009
772,8	0,009
773,2	0,009
773,7	0,009
774,1	0,009
774,5	0,009
775	0,008
775,4	0,008
775,8	0,008
776,3	0,008
776,7	0,008
777,1	0,008
777,6	0,008
778	0,008
778,4	0,009
778,9	0,009
779,3	0,009
779,7	0,009
780,2	0,009
780,6	0,009
781	0,009
781,5	0,008
781,9	0,008
782,3	0,008
782,8	0,008
783,2	0,008
783,6	0,008
784,1	0,008
784,5	0,008
784,9	0,008
785,4	0,008
785,8	0,008
786,2	0,008
786,7	0,009
787,1	0,009
787,5	0,009
788	0,009
788,4	0,01
788,8	0,01
789,3	0,01
789,7	0,01
790,1	0,01
790,6	0,01
791	0,01
791,4	0,01
791,9	0,009
792,3	0,009
792,7	0,01
793,2	0,01
793,6	0,01
794	0,01
794,5	0,01
794,9	0,01
795,3	0,01
795,8	0,01
796,2	0,01
796,6	0,01
797,1	0,01
797,5	0,01
797,9	0,01
798,4	0,009
798,8	0,009
799,2	0,009
799,7	0,009
800,1	0,008
800,5	0,009
801	0,009
801,4	0,009
801,8	0,009
802,2	0,009
802,7	0,01
803,1	0,01
803,5	0,009
804	0,009
804,4	0,009
804,8	0,009
805,3	0,009
805,7	0,008
806,1	0,009
806,6	0,009
807	0,009
807,4	0,009
807,9	0,009
808,3	0,01
808,7	0,009
809,2	0,009
809,6	0,009
810	0,009
810,4	0,01
810,9	0,01
811,3	0,009
811,7	0,009
812,2	0,01
812,6	0,009
813	0,009
813,5	0,008
813,9	0,008
814,3	0,008
814,8	0,008
815,2	0,008
815,6	0,008
816,1	0,008
816,5	0,008
816,9	0,008
817,3	0,008
817,8	0,008
818,2	0,009
818,6	0,009
819,1	0,009
819,5	0,009
819,9	0,009
820,4	0,009
820,8	0,008
821,2	0,008
821,7	0,008
822,1	0,008
822,5	0,008
822,9	0,008
823,4	0,008
823,8	0,009
824,2	0,009
824,7	0,009
825,1	0,009
825,5	0,01
826	0,009
826,4	0,009
826,8	0,009
827,3	0,009
827,7	0,009
828,1	0,009
828,5	0,009
829	0,009
829,4	0,008
829,8	0,009
830,3	0,008
830,7	0,008
831,1	0,008
831,6	0,008
832	0,008
832,4	0,008
832,8	0,008
833,3	0,008
833,7	0,008
834,1	0,008
834,6	0,008
835	0,008
835,4	0,008
835,8	0,008
836,3	0,008
836,7	0,008
837,1	0,007
837,6	0,007
838	0,007
838,4	0,007
838,9	0,007
839,3	0,007
839,7	0,008
840,1	0,008
840,6	0,008
841	0,008
841,4	0,008
841,9	0,009
842,3	0,009
842,7	0,009
843,1	0,009
843,6	0,009
844	0,009
844,4	0,009
844,9	0,009
845,3	0,009
845,7	0,009
846,2	0,009
846,6	0,008
847	0,008
847,4	0,008
847,9	0,008
848,3	0,008
848,7	0,008
849,2	0,008
849,6	0,008
850	0,007
850,4	0,008
850,9	0,007
851,3	0,008
851,7	0,008
852,2	0,008
852,6	0,008
853	0,008
853,4	0,008
853,9	0,008
854,3	0,008
854,7	0,008
855,2	0,008
855,6	0,008
856	0,008
856,4	0,008
856,9	0,008
857,3	0,008
857,7	0,008
858,2	0,008
858,6	0,009
859	0,009
859,4	0,009
859,9	0,009
860,3	0,009
860,7	0,009
861,1	0,009
861,6	0,009
862	0,009
862,4	0,008
862,9	0,008
863,3	0,008
863,7	0,008
864,1	0,009
864,6	0,009
865	0,009
865,4	0,009
865,9	0,009
866,3	0,009
866,7	0,009
867,1	0,008
867,6	0,008
868	0,008
868,4	0,009
868,8	0,009
869,3	0,009
869,7	0,009
870,1	0,009
870,6	0,009
871	0,009
871,4	0,008
871,8	0,008
872,3	0,008
872,7	0,008
873,1	0,008
873,5	0,008
874	0,008
874,4	0,008
874,8	0,007
875,3	0,007
875,7	0,007
876,1	0,007
876,5	0,008
877	0,008
877,4	0,008
877,8	0,009
878,2	0,009
878,7	0,009
879,1	0,008
879,5	0,008
879,9	0,008
880,4	0,008
880,8	0,008
881,2	0,008
881,7	0,008
882,1	0,009
882,5	0,009
882,9	0,01
883,4	0,01
883,8	0,01
884,2	0,01
884,6	0,01
885,1	0,009
885,5	0,009
885,9	0,009
886,3	0,008
886,8	0,008
887,2	0,008
887,6	0,008
888	0,009
888,5	0,009
888,9	0,009
889,3	0,009
889,8	0,01
890,2	0,01
890,6	0,009
891	0,009
891,5	0,01
891,9	0,01
892,3	0,009
892,7	0,009
893,2	0,009
893,6	0,01
894	0,01
894,4	0,01
894,9	0,01
895,3	0,01
895,7	0,01
896,1	0,01
896,6	0,01
897	0,01
897,4	0,01
897,8	0,009
898,3	0,009
898,7	0,009
899,1	0,01
899,5	0,01
900	0,009
900,4	0,01
900,8	0,01
901,2	0,01
901,7	0,01
902,1	0,009
902,5	0,009
902,9	0,009
903,4	0,009
903,8	0,009
904,2	0,009
904,6	0,009
905,1	0,009
905,5	0,009
905,9	0,009
906,3	0,009
906,8	0,009
907,2	0,009
907,6	0,009
908	0,009
908,5	0,01
908,9	0,01
909,3	0,009
909,7	0,009
910,2	0,009
910,6	0,009
911	0,009
911,4	0,009
911,9	0,009
912,3	0,009
912,7	0,009
913,1	0,009
913,6	0,008
914	0,008
914,4	0,008
914,8	0,008
915,3	0,008
915,7	0,008
916,1	0,008
916,5	0,008
916,9	0,008
917,4	0,008
917,8	0,008
918,2	0,008
918,6	0,007
919,1	0,008
919,5	0,008
919,9	0,008
920,3	0,008
920,8	0,008
921,2	0,008
921,6	0,009
922	0,009
922,5	0,009
922,9	0,009
923,3	0,009
923,7	0,009
924,2	0,009
924,6	0,008
925	0,008
925,4	0,007
925,8	0,007
926,3	0,007
926,7	0,008
927,1	0,008
927,5	0,008
928	0,008
928,4	0,008
928,8	0,008
929,2	0,009
929,7	0,009
930,1	0,009
930,5	0,009
930,9	0,009
931,3	0,009
931,8	0,009
932,2	0,009
932,6	0,008
933	0,009
933,5	0,009
933,9	0,009
934,3	0,009
934,7	0,009
935,2	0,01
935,6	0,01
936	0,009
936,4	0,009
936,8	0,009
937,3	0,008
937,7	0,008
938,1	0,008
938,5	0,007
939	0,007
939,4	0,007
939,8	0,007
940,2	0,007
940,6	0,007
941,1	0,007
941,5	0,008
941,9	0,008
942,3	0,008
942,8	0,008
943,2	0,008
943,6	0,008
944	0,008
944,4	0,008
944,9	0,007
945,3	0,007
945,7	0,008
946,1	0,008
946,6	0,007
947	0,008
947,4	0,007
947,8	0,007
948,2	0,008
948,7	0,008
949,1	0,009
949,5	0,009
949,9	0,009
950,3	0,009
950,8	0,01
951,2	0,009
951,6	0,009
952	0,009
952,5	0,009
952,9	0,009
953,3	0,009
953,7	0,009
954,1	0,009
954,6	0,009
955	0,009
955,4	0,008
955,8	0,008
956,2	0,008
956,7	0,007
957,1	0,007
957,5	0,007
957,9	0,007
958,3	0,008
958,8	0,008
959,2	0,008
959,6	0,008
960	0,008
960,5	0,008
960,9	0,009
961,3	0,009
961,7	0,009
962,1	0,008
962,6	0,009
963	0,009
963,4	0,009
963,8	0,009
964,2	0,01
964,7	0,01
965,1	0,01
965,5	0,009
965,9	0,009
966,3	0,009
966,8	0,009
967,2	0,009
967,6	0,009
968	0,009
968,4	0,009
968,9	0,009
969,3	0,009
969,7	0,009
970,1	0,009
970,5	0,009
971	0,009
971,4	0,009
971,8	0,009
972,2	0,008
972,6	0,009
973,1	0,009
973,5	0,009
973,9	0,008
974,3	0,009
974,7	0,009
975,2	0,009
975,6	0,009
976	0,009
976,4	0,009
976,8	0,009
977,3	0,008
977,7	0,008
978,1	0,008
978,5	0,008
978,9	0,008
979,4	0,009
979,8	0,009
980,2	0,009
980,6	0,009
981	0,009
981,5	0,008
981,9	0,008
982,3	0,008
982,7	0,008
983,1	0,008
983,6	0,008
984	0,008
984,4	0,008
984,8	0,009
985,2	0,009
985,6	0,009
986,1	0,009
986,5	0,009
986,9	0,009
987,3	0,009
987,7	0,009
988,2	0,01
988,6	0,01
989	0,01
989,4	0,009
989,8	0,009
990,3	0,009
990,7	0,008
991,1	0,007
991,5	0,007
991,9	0,007
992,3	0,007
992,8	0,007
993,2	0,007
993,6	0,007
994	0,008
994,4	0,008
994,9	0,008
995,3	0,008
995,7	0,008
996,1	0,008
996,5	0,009
996,9	0,008
997,4	0,009
997,8	0,008
998,2	0,008
998,6	0,009
999	0,009
999,5	0,008
999,9	0,008
1000,3	0,008
1000,7	0,009
1001,1	0,009
1001,5	0,009
1002	0,009
1002,4	0,009
1002,8	0,01
1003,2	0,009
1003,6	0,009
1004	0,009
1004,5	0,009
1004,9	0,009
1005,3	0,009
1005,7	0,009
1006,1	0,008
1006,6	0,008
1007	0,008
1007,4	0,008
1007,8	0,008
1008,2	0,008
1008,6	0,007
1009,1	0,007
1009,5	0,007
1009,9	0,007
1010,3	0,008
1010,7	0,008
1011,1	0,009
1011,6	0,009
1012	0,009
1012,4	0,009
1012,8	0,01
1013,2	0,01
1013,6	0,009
1014,1	0,01
1014,5	0,01
1014,9	0,01
1015,3	0,01
1015,7	0,01
1016,1	0,01
1016,6	0,01
1017	0,009
1017,4	0,009
1017,8	0,008
1018,2	0,008
1018,6	0,008
1019,1	0,008
1019,5	0,008
1019,9	0,009
1020,3	0,008
1020,7	0,009
1021,1	0,009
1021,6	0,009
1022	0,009
1022,4	0,01
1022,8	0,009
1023,2	0,011
1023,6	0,011
1024,1	0,011
1024,5	0,011
1024,9	0,011
1025,3	0,01
1025,7	0,011
1026,1	0,01
1026,6	0,01
1027	0,009
1027,4	0,009
1027,8	0,009
1028,2	0,009
1028,6	0,008
1029	0,009
1029,5	0,008
1029,9	0,008
1030,3	0,009
1030,7	0,009
1031,1	0,01
1031,5	0,01
1032	0,01
1032,4	0,009
1032,8	0,01
1033,2	0,009
1033,6	0,009
1034	0,008
1034,4	0,009
1034,9	0,008
1035,3	0,009
1035,7	0,009
1036,1	0,009
1036,5	0,009
1036,9	0,009
1037,4	0,009
1037,8	0,009
1038,2	0,01
1038,6	0,01
1039	0,009
1039,4	0,009
1039,8	0,009
1040,3	0,008
1040,7	0,008
1041,1	0,007
1041,5	0,007
1041,9	0,007
1042,3	0,008
1042,7	0,008
1043,2	0,008
1043,6	0,009
1044	0,009
1044,4	0,009
1044,8	0,009
1045,2	0,008
1045,6	0,009
1046,1	0,009
1046,5	0,009
1046,9	0,008
1047,3	0,009
1047,7	0,008
1048,1	0,007
1048,5	0,007
1049	0,007
1049,4	0,006
1049,8	0,007
1050,2	0,006
1050,6	0,007
1051	0,008
1051,4	0,009
1051,9	0,009
1052,3	0,009
1052,7	0,009
1053,1	0,01
1053,5	0,009
1053,9	0,009
1054,3	0,008
1054,8	0,008
1055,2	0,009
1055,6	0,009
1056	0,01
1056,4	0,01
1056,8	0,01
1057,2	0,01
1057,6	0,01
1058,1	0,009
1058,5	0,009
1058,9	0,008
1059,3	0,008
1059,7	0,009
1060,1	0,009
1060,5	0,009
1061	0,009
1061,4	0,009
1061,8	0,01
1062,2	0,009
1062,6	0,009
1063	0,01
1063,4	0,01
1063,8	0,009
1064,3	0,009
1064,7	0,008
1065,1	0,008
1065,5	0,008
1065,9	0,007
1066,3	0,007
1066,7	0,007
1067,1	0,008
1067,6	0,01
1068	0,009
1068,4	0,009
1068,8	0,009
1069,2	0,009
1069,6	0,01
1070	0,01
1070,4	0,01
1070,9	0,009
1071,3	0,01
1071,7	0,01
1072,1	0,01
1072,5	0,009
1072,9	0,009
1073,3	0,009
1073,7	0,01
1074,2	0,011
1074,6	0,01
1075	0,01
1075,4	0,009
1075,8	0,009
1076,2	0,009
1076,6	0,007
1077	0,007
1077,5	0,008
1077,9	0,008
1078,3	0,009
1078,7	0,01
1079,1	0,009
1079,5	0,008
1079,9	0,009
1080,3	0,008
1080,7	0,009
1081,2	0,01
1081,6	0,01
1082	0,011
1082,4	0,013
1082,8	0,011
1083,2	0,014
1083,6	0,012
1084	0,01
1084,5	0,009
1084,9	0,011
1085,3	0,011
1085,7	0,012
1086,1	0,011
1086,5	0,012
1086,9	0,012
1087,3	0,013
1087,7	0,012
1088,2	0,009
1088,6	0,008
1089	0,009
1089,4	0,009
1089,8	0,009
1090,2	0,01
1090,6	0,01
1091	0,011
1091,4	0,008
1091,9	0,007
1092,3	0,006
1092,7	0,007
1093,1	0,006
1093,5	0,006
1093,9	0,009
1094,3	0,011
1094,7	0,011
1095,1	0,013
1095,5	0,014
1096	0,014
1096,4	0,011
1096,8	0,01
1097,2	0,018
1097,6	0,02
1098	0,022
1098,4	0,024
1098,8	0,027
1099,2	0,037
1099,6	0,04
1100,1	0,04
1100,5	0,048
1100,9	0,048
1101,3	0,049
1101,7	0,048
1102,1	0,05
1102,5	0,045
1102,9	0,042
1103,3	0,03
1103,7	0,032
1104,2	0,028
1104,6	0,035
1105	0,033
1105,4	0,033
1105,8	0,04
1106,2	0,051
1106,6	0,055
1107	0,085
1107,4	0,083
1107,8	0,103
1108,3	-0
