Data from Absorbance_218.txt Node
Date: Fri Nov 13 21:11:08 MSK 2020
User: vat
Spectrometer: MAYP114033
Trigger mode: 0
Integration Time (sec): 8,000000E-3
Scans to average: 10
Electric dark correction enabled: true
Nonlinearity correction enabled: false
Boxcar width: 3
XAxis mode: Wavelengths
Number of Pixels in Spectrum: 2068
>>>>>Begin Spectral Data<<<<<
199,4	-0
199,9	0,317
200,4	0,254
200,8	0,186
201,3	0,152
201,8	0,145
202,2	0,142
202,7	0,148
203,2	0,126
203,6	0,109
204,1	0,118
204,6	0,098
205	0,102
205,5	0,109
206	0,118
206,4	0,126
206,9	0,137
207,4	0,135
207,8	0,158
208,3	0,149
208,8	0,163
209,2	0,154
209,7	0,147
210,2	0,149
210,6	0,149
211,1	0,128
211,5	0,147
212	0,133
212,5	0,141
212,9	0,142
213,4	0,129
213,9	0,13
214,3	0,14
214,8	0,134
215,3	0,136
215,7	0,101
216,2	0,092
216,7	0,105
217,1	0,108
217,6	0,113
218,1	0,121
218,5	0,121
219	0,155
219,5	0,179
219,9	0,193
220,4	0,184
220,9	0,17
221,3	0,158
221,8	0,161
222,3	0,131
222,7	0,113
223,2	0,103
223,6	0,11
224,1	0,127
224,6	0,121
225	0,11
225,5	0,139
226	0,143
226,4	0,121
226,9	0,098
227,4	0,106
227,8	0,112
228,3	0,135
228,8	0,12
229,2	0,134
229,7	0,153
230,2	0,174
230,6	0,166
231,1	0,174
231,5	0,166
232	0,185
232,5	0,176
232,9	0,18
233,4	0,187
233,9	0,189
234,3	0,19
234,8	0,185
235,3	0,173
235,7	0,178
236,2	0,171
236,7	0,159
237,1	0,146
237,6	0,139
238,1	0,14
238,5	0,142
239	0,138
239,4	0,148
239,9	0,158
240,4	0,173
240,8	0,178
241,3	0,185
241,8	0,184
242,2	0,189
242,7	0,19
243,2	0,193
243,6	0,191
244,1	0,188
244,6	0,199
245	0,219
245,5	0,226
245,9	0,238
246,4	0,246
246,9	0,247
247,3	0,271
247,8	0,271
248,3	0,272
248,7	0,276
249,2	0,285
249,7	0,287
250,1	0,287
250,6	0,282
251	0,284
251,5	0,283
252	0,282
252,4	0,28
252,9	0,282
253,4	0,287
253,8	0,288
254,3	0,289
254,8	0,29
255,2	0,294
255,7	0,298
256,1	0,301
256,6	0,303
257,1	0,308
257,5	0,313
258	0,318
258,5	0,322
258,9	0,325
259,4	0,33
259,9	0,335
260,3	0,34
260,8	0,344
261,2	0,348
261,7	0,353
262,2	0,359
262,6	0,364
263,1	0,369
263,6	0,375
264	0,381
264,5	0,387
264,9	0,393
265,4	0,398
265,9	0,403
266,3	0,408
266,8	0,412
267,3	0,418
267,7	0,422
268,2	0,428
268,7	0,434
269,1	0,44
269,6	0,445
270	0,451
270,5	0,456
271	0,463
271,4	0,468
271,9	0,473
272,4	0,478
272,8	0,483
273,3	0,488
273,7	0,492
274,2	0,497
274,7	0,502
275,1	0,506
275,6	0,511
276,1	0,515
276,5	0,519
277	0,523
277,4	0,526
277,9	0,529
278,4	0,532
278,8	0,534
279,3	0,535
279,8	0,537
280,2	0,537
280,7	0,538
281,1	0,539
281,6	0,54
282,1	0,54
282,5	0,54
283	0,539
283,4	0,538
283,9	0,536
284,4	0,535
284,8	0,532
285,3	0,529
285,8	0,526
286,2	0,523
286,7	0,519
287,1	0,515
287,6	0,511
288,1	0,506
288,5	0,501
289	0,495
289,5	0,49
289,9	0,483
290,4	0,476
290,8	0,469
291,3	0,462
291,8	0,455
292,2	0,447
292,7	0,438
293,1	0,43
293,6	0,423
294,1	0,414
294,5	0,406
295	0,396
295,5	0,388
295,9	0,379
296,4	0,37
296,8	0,36
297,3	0,351
297,8	0,342
298,2	0,333
298,7	0,324
299,1	0,314
299,6	0,305
300,1	0,297
300,5	0,288
301	0,28
301,5	0,271
301,9	0,263
302,4	0,255
302,8	0,247
303,3	0,239
303,8	0,231
304,2	0,224
304,7	0,218
305,1	0,21
305,6	0,204
306,1	0,198
306,5	0,191
307	0,185
307,4	0,18
307,9	0,174
308,4	0,169
308,8	0,164
309,3	0,159
309,8	0,155
310,2	0,151
310,7	0,146
311,1	0,142
311,6	0,139
312,1	0,135
312,5	0,131
313	0,128
313,4	0,125
313,9	0,122
314,4	0,119
314,8	0,116
315,3	0,114
315,7	0,112
316,2	0,11
316,7	0,108
317,1	0,106
317,6	0,104
318	0,102
318,5	0,1
319	0,098
319,4	0,097
319,9	0,095
320,3	0,094
320,8	0,092
321,3	0,091
321,7	0,09
322,2	0,09
322,6	0,089
323,1	0,088
323,6	0,087
324	0,086
324,5	0,086
324,9	0,085
325,4	0,085
325,9	0,083
326,3	0,083
326,8	0,082
327,2	0,082
327,7	0,081
328,2	0,08
328,6	0,079
329,1	0,079
329,5	0,077
330	0,077
330,5	0,077
330,9	0,076
331,4	0,076
331,8	0,076
332,3	0,075
332,8	0,075
333,2	0,074
333,7	0,073
334,1	0,073
334,6	0,072
335,1	0,072
335,5	0,071
336	0,071
336,4	0,071
336,9	0,071
337,4	0,07
337,8	0,07
338,3	0,07
338,7	0,069
339,2	0,069
339,7	0,068
340,1	0,068
340,6	0,067
341	0,067
341,5	0,067
342	0,066
342,4	0,066
342,9	0,066
343,3	0,065
343,8	0,065
344,2	0,065
344,7	0,065
345,2	0,064
345,6	0,064
346,1	0,064
346,5	0,064
347	0,063
347,5	0,063
347,9	0,063
348,4	0,063
348,8	0,063
349,3	0,063
349,8	0,063
350,2	0,062
350,7	0,062
351,1	0,061
351,6	0,061
352	0,06
352,5	0,06
353	0,059
353,4	0,059
353,9	0,059
354,3	0,059
354,8	0,058
355,3	0,058
355,7	0,058
356,2	0,058
356,6	0,058
357,1	0,057
357,5	0,057
358	0,057
358,5	0,057
358,9	0,057
359,4	0,057
359,8	0,057
360,3	0,057
360,8	0,058
361,2	0,057
361,7	0,057
362,1	0,056
362,6	0,056
363	0,056
363,5	0,055
364	0,055
364,4	0,054
364,9	0,054
365,3	0,054
365,8	0,054
366,3	0,054
366,7	0,053
367,2	0,053
367,6	0,053
368,1	0,053
368,5	0,052
369	0,052
369,5	0,052
369,9	0,052
370,4	0,052
370,8	0,052
371,3	0,052
371,7	0,051
372,2	0,051
372,7	0,051
373,1	0,051
373,6	0,051
374	0,05
374,5	0,05
374,9	0,05
375,4	0,049
375,9	0,048
376,3	0,048
376,8	0,048
377,2	0,048
377,7	0,048
378,2	0,048
378,6	0,048
379,1	0,048
379,5	0,048
380	0,048
380,4	0,048
380,9	0,047
381,4	0,046
381,8	0,046
382,3	0,046
382,7	0,046
383,2	0,045
383,6	0,045
384,1	0,046
384,6	0,046
385	0,046
385,5	0,046
385,9	0,045
386,4	0,045
386,8	0,045
387,3	0,045
387,7	0,044
388,2	0,043
388,7	0,044
389,1	0,044
389,6	0,044
390	0,043
390,5	0,043
390,9	0,043
391,4	0,043
391,9	0,043
392,3	0,043
392,8	0,042
393,2	0,043
393,7	0,042
394,1	0,042
394,6	0,042
395,1	0,042
395,5	0,041
396	0,041
396,4	0,041
396,9	0,041
397,3	0,04
397,8	0,04
398,2	0,041
398,7	0,041
399,2	0,041
399,6	0,04
400,1	0,04
400,5	0,04
401	0,04
401,4	0,04
401,9	0,04
402,4	0,04
402,8	0,04
403,3	0,04
403,7	0,04
404,2	0,04
404,6	0,04
405,1	0,039
405,5	0,039
406	0,038
406,5	0,038
406,9	0,038
407,4	0,038
407,8	0,038
408,3	0,038
408,7	0,038
409,2	0,038
409,6	0,038
410,1	0,038
410,6	0,038
411	0,038
411,5	0,038
411,9	0,038
412,4	0,038
412,8	0,038
413,3	0,037
413,7	0,037
414,2	0,038
414,7	0,038
415,1	0,037
415,6	0,037
416	0,037
416,5	0,038
416,9	0,038
417,4	0,038
417,8	0,038
418,3	0,039
418,8	0,039
419,2	0,038
419,7	0,038
420,1	0,037
420,6	0,037
421	0,036
421,5	0,036
421,9	0,036
422,4	0,036
422,8	0,036
423,3	0,036
423,8	0,036
424,2	0,036
424,7	0,036
425,1	0,036
425,6	0,036
426	0,036
426,5	0,036
426,9	0,036
427,4	0,035
427,9	0,036
428,3	0,035
428,8	0,035
429,2	0,035
429,7	0,035
430,1	0,034
430,6	0,034
431	0,034
431,5	0,034
431,9	0,034
432,4	0,034
432,8	0,033
433,3	0,033
433,8	0,033
434,2	0,033
434,7	0,033
435,1	0,033
435,6	0,033
436	0,033
436,5	0,034
436,9	0,034
437,4	0,034
437,8	0,034
438,3	0,034
438,8	0,033
439,2	0,033
439,7	0,032
440,1	0,032
440,6	0,032
441	0,032
441,5	0,032
441,9	0,032
442,4	0,032
442,8	0,032
443,3	0,032
443,7	0,032
444,2	0,033
444,7	0,033
445,1	0,033
445,6	0,033
446	0,033
446,5	0,033
446,9	0,033
447,4	0,033
447,8	0,032
448,3	0,032
448,7	0,032
449,2	0,032
449,6	0,032
450,1	0,031
450,6	0,031
451	0,031
451,5	0,031
451,9	0,031
452,4	0,031
452,8	0,031
453,3	0,031
453,7	0,031
454,2	0,031
454,6	0,031
455,1	0,03
455,5	0,03
456	0,03
456,4	0,03
456,9	0,03
457,3	0,03
457,8	0,03
458,3	0,03
458,7	0,029
459,2	0,029
459,6	0,03
460,1	0,03
460,5	0,03
461	0,03
461,4	0,03
461,9	0,03
462,3	0,031
462,8	0,03
463,2	0,03
463,7	0,03
464,1	0,03
464,6	0,031
465	0,03
465,5	0,03
466	0,03
466,4	0,03
466,9	0,029
467,3	0,029
467,8	0,028
468,2	0,029
468,7	0,029
469,1	0,029
469,6	0,029
470	0,029
470,5	0,03
470,9	0,029
471,4	0,029
471,8	0,029
472,3	0,03
472,7	0,03
473,2	0,03
473,6	0,03
474,1	0,03
474,5	0,03
475	0,03
475,4	0,03
475,9	0,03
476,4	0,029
476,8	0,029
477,3	0,028
477,7	0,028
478,2	0,028
478,6	0,028
479,1	0,028
479,5	0,029
480	0,029
480,4	0,029
480,9	0,029
481,3	0,029
481,8	0,029
482,2	0,029
482,7	0,029
483,1	0,029
483,6	0,029
484	0,03
484,5	0,029
484,9	0,028
485,4	0,028
485,8	0,027
486,3	0,027
486,7	0,026
487,2	0,026
487,6	0,026
488,1	0,027
488,5	0,027
489	0,028
489,4	0,028
489,9	0,028
490,4	0,028
490,8	0,028
491,3	0,028
491,7	0,028
492,2	0,028
492,6	0,027
493,1	0,027
493,5	0,027
494	0,027
494,4	0,026
494,9	0,026
495,3	0,026
495,8	0,026
496,2	0,026
496,7	0,027
497,1	0,027
497,6	0,027
498	0,026
498,5	0,027
498,9	0,026
499,4	0,026
499,8	0,026
500,3	0,026
500,7	0,026
501,2	0,027
501,6	0,026
502,1	0,027
502,5	0,027
503	0,027
503,4	0,026
503,9	0,027
504,3	0,026
504,8	0,026
505,2	0,025
505,7	0,025
506,1	0,025
506,6	0,025
507	0,025
507,5	0,025
507,9	0,025
508,4	0,025
508,8	0,026
509,3	0,026
509,7	0,026
510,2	0,026
510,6	0,026
511,1	0,026
511,5	0,026
512	0,026
512,4	0,026
512,9	0,025
513,3	0,025
513,8	0,024
514,2	0,024
514,7	0,024
515,1	0,024
515,6	0,024
516	0,024
516,5	0,024
516,9	0,024
517,4	0,024
517,8	0,025
518,3	0,024
518,7	0,024
519,2	0,024
519,6	0,024
520,1	0,024
520,5	0,024
521	0,023
521,4	0,023
521,9	0,023
522,3	0,023
522,8	0,023
523,2	0,024
523,7	0,024
524,1	0,024
524,6	0,024
525	0,024
525,5	0,023
525,9	0,023
526,4	0,023
526,8	0,022
527,3	0,023
527,7	0,023
528,2	0,023
528,6	0,024
529,1	0,024
529,5	0,024
530	0,024
530,4	0,024
530,9	0,023
531,3	0,024
531,8	0,023
532,2	0,023
532,6	0,022
533,1	0,022
533,5	0,021
534	0,022
534,4	0,021
534,9	0,021
535,3	0,022
535,8	0,022
536,2	0,022
536,7	0,022
537,1	0,022
537,6	0,021
538	0,021
538,5	0,021
538,9	0,021
539,4	0,021
539,8	0,021
540,3	0,021
540,7	0,021
541,2	0,021
541,6	0,021
542,1	0,021
542,5	0,021
543	0,021
543,4	0,021
543,9	0,021
544,3	0,02
544,8	0,02
545,2	0,02
545,7	0,02
546,1	0,02
546,5	0,02
547	0,02
547,4	0,02
547,9	0,02
548,3	0,02
548,8	0,02
549,2	0,02
549,7	0,02
550,1	0,02
550,6	0,02
551	0,02
551,5	0,02
551,9	0,02
552,4	0,02
552,8	0,02
553,3	0,02
553,7	0,021
554,2	0,021
554,6	0,021
555,1	0,021
555,5	0,021
555,9	0,02
556,4	0,02
556,8	0,019
557,3	0,019
557,7	0,019
558,2	0,019
558,6	0,019
559,1	0,019
559,5	0,019
560	0,019
560,4	0,018
560,9	0,019
561,3	0,018
561,8	0,019
562,2	0,018
562,7	0,018
563,1	0,018
563,6	0,019
564	0,018
564,4	0,018
564,9	0,018
565,3	0,018
565,8	0,018
566,2	0,019
566,7	0,018
567,1	0,019
567,6	0,019
568	0,019
568,5	0,018
568,9	0,018
569,4	0,018
569,8	0,018
570,3	0,018
570,7	0,018
571,1	0,018
571,6	0,018
572	0,018
572,5	0,018
572,9	0,018
573,4	0,018
573,8	0,018
574,3	0,018
574,7	0,017
575,2	0,017
575,6	0,018
576,1	0,018
576,5	0,018
576,9	0,018
577,4	0,017
577,8	0,017
578,3	0,018
578,7	0,018
579,2	0,018
579,6	0,018
580,1	0,018
580,5	0,018
581	0,018
581,4	0,017
581,9	0,017
582,3	0,017
582,7	0,016
583,2	0,016
583,6	0,016
584,1	0,016
584,5	0,016
585	0,016
585,4	0,016
585,9	0,016
586,3	0,016
586,8	0,016
587,2	0,016
587,6	0,016
588,1	0,016
588,5	0,016
589	0,016
589,4	0,016
589,9	0,016
590,3	0,016
590,8	0,015
591,2	0,016
591,7	0,016
592,1	0,016
592,5	0,016
593	0,016
593,4	0,016
593,9	0,016
594,3	0,016
594,8	0,016
595,2	0,016
595,7	0,016
596,1	0,016
596,6	0,015
597	0,015
597,4	0,015
597,9	0,015
598,3	0,015
598,8	0,015
599,2	0,015
599,7	0,015
600,1	0,014
600,6	0,014
601	0,015
601,4	0,015
601,9	0,015
602,3	0,014
602,8	0,015
603,2	0,015
603,7	0,015
604,1	0,015
604,6	0,015
605	0,015
605,4	0,015
605,9	0,015
606,3	0,015
606,8	0,015
607,2	0,015
607,7	0,015
608,1	0,015
608,6	0,015
609	0,015
609,4	0,015
609,9	0,015
610,3	0,015
610,8	0,015
611,2	0,015
611,7	0,014
612,1	0,014
612,6	0,014
613	0,014
613,4	0,014
613,9	0,014
614,3	0,014
614,8	0,014
615,2	0,014
615,7	0,014
616,1	0,014
616,6	0,014
617	0,014
617,4	0,014
617,9	0,014
618,3	0,014
618,8	0,014
619,2	0,014
619,7	0,014
620,1	0,014
620,5	0,014
621	0,014
621,4	0,013
621,9	0,013
622,3	0,013
622,8	0,013
623,2	0,012
623,6	0,012
624,1	0,012
624,5	0,013
625	0,013
625,4	0,013
625,9	0,013
626,3	0,013
626,8	0,013
627,2	0,013
627,6	0,013
628,1	0,013
628,5	0,012
629	0,012
629,4	0,013
629,9	0,013
630,3	0,013
630,7	0,014
631,2	0,013
631,6	0,014
632,1	0,013
632,5	0,013
633	0,013
633,4	0,013
633,8	0,013
634,3	0,014
634,7	0,014
635,2	0,014
635,6	0,013
636,1	0,013
636,5	0,013
636,9	0,013
637,4	0,012
637,8	0,012
638,3	0,012
638,7	0,012
639,2	0,012
639,6	0,012
640	0,013
640,5	0,013
640,9	0,013
641,4	0,013
641,8	0,013
642,2	0,014
642,7	0,013
643,1	0,013
643,6	0,013
644	0,013
644,5	0,013
644,9	0,013
645,3	0,012
645,8	0,012
646,2	0,012
646,7	0,012
647,1	0,012
647,6	0,012
648	0,012
648,4	0,012
648,9	0,012
649,3	0,013
649,8	0,013
650,2	0,013
650,6	0,013
651,1	0,013
651,5	0,013
652	0,013
652,4	0,013
652,9	0,013
653,3	0,014
653,7	0,018
654,2	0,011
654,6	0,008
655,1	0,006
655,5	0,005
655,9	0,005
656,4	0,004
656,8	0,002
657,3	0,003
657,7	0,005
658,2	0,007
658,6	0,01
659	0,011
659,5	0,011
659,9	0,012
660,4	0,012
660,8	0,012
661,2	0,012
661,7	0,012
662,1	0,012
662,6	0,012
663	0,012
663,4	0,011
663,9	0,011
664,3	0,011
664,8	0,011
665,2	0,012
665,6	0,012
666,1	0,012
666,5	0,012
667	0,012
667,4	0,013
667,9	0,013
668,3	0,013
668,7	0,013
669,2	0,013
669,6	0,013
670,1	0,013
670,5	0,013
670,9	0,012
671,4	0,012
671,8	0,012
672,3	0,012
672,7	0,012
673,1	0,011
673,6	0,011
674	0,012
674,5	0,012
674,9	0,012
675,3	0,012
675,8	0,012
676,2	0,013
676,7	0,013
677,1	0,013
677,5	0,013
678	0,013
678,4	0,013
678,9	0,013
679,3	0,013
679,7	0,013
680,2	0,013
680,6	0,013
681,1	0,013
681,5	0,012
681,9	0,013
682,4	0,013
682,8	0,012
683,3	0,012
683,7	0,012
684,1	0,012
684,6	0,012
685	0,012
685,5	0,012
685,9	0,012
686,3	0,011
686,8	0,011
687,2	0,011
687,7	0,011
688,1	0,012
688,5	0,012
689	0,012
689,4	0,012
689,9	0,012
690,3	0,012
690,7	0,012
691,2	0,011
691,6	0,012
692	0,012
692,5	0,011
692,9	0,011
693,4	0,011
693,8	0,011
694,2	0,011
694,7	0,011
695,1	0,011
695,6	0,011
696	0,012
696,4	0,012
696,9	0,012
697,3	0,011
697,8	0,011
698,2	0,011
698,6	0,011
699,1	0,011
699,5	0,011
699,9	0,011
700,4	0,011
700,8	0,011
701,3	0,011
701,7	0,011
702,1	0,011
702,6	0,011
703	0,012
703,5	0,012
703,9	0,012
704,3	0,012
704,8	0,012
705,2	0,012
705,6	0,012
706,1	0,012
706,5	0,012
707	0,012
707,4	0,013
707,8	0,012
708,3	0,012
708,7	0,012
709,2	0,012
709,6	0,012
710	0,012
710,5	0,012
710,9	0,012
711,3	0,012
711,8	0,012
712,2	0,012
712,7	0,012
713,1	0,011
713,5	0,011
714	0,011
714,4	0,011
714,8	0,011
715,3	0,011
715,7	0,011
716,2	0,011
716,6	0,011
717	0,012
717,5	0,012
717,9	0,012
718,3	0,012
718,8	0,011
719,2	0,011
719,7	0,011
720,1	0,011
720,5	0,011
721	0,011
721,4	0,011
721,8	0,011
722,3	0,011
722,7	0,011
723,2	0,011
723,6	0,012
724	0,012
724,5	0,012
724,9	0,012
725,3	0,012
725,8	0,012
726,2	0,012
726,7	0,012
727,1	0,012
727,5	0,012
728	0,012
728,4	0,012
728,8	0,012
729,3	0,011
729,7	0,011
730,1	0,011
730,6	0,011
731	0,011
731,5	0,011
731,9	0,011
732,3	0,011
732,8	0,011
733,2	0,011
733,6	0,011
734,1	0,012
734,5	0,011
734,9	0,012
735,4	0,012
735,8	0,012
736,3	0,012
736,7	0,011
737,1	0,011
737,6	0,011
738	0,011
738,4	0,01
738,9	0,011
739,3	0,011
739,7	0,011
740,2	0,011
740,6	0,011
741,1	0,011
741,5	0,01
741,9	0,01
742,4	0,01
742,8	0,01
743,2	0,01
743,7	0,01
744,1	0,011
744,5	0,011
745	0,011
745,4	0,011
745,8	0,011
746,3	0,011
746,7	0,011
747,2	0,011
747,6	0,011
748	0,011
748,5	0,011
748,9	0,01
749,3	0,011
749,8	0,011
750,2	0,011
750,6	0,011
751,1	0,01
751,5	0,011
751,9	0,011
752,4	0,011
752,8	0,011
753,3	0,01
753,7	0,01
754,1	0,011
754,6	0,011
755	0,011
755,4	0,011
755,9	0,012
756,3	0,012
756,7	0,012
757,2	0,012
757,6	0,012
758	0,012
758,5	0,012
758,9	0,011
759,3	0,011
759,8	0,011
760,2	0,011
760,6	0,012
761,1	0,012
761,5	0,012
761,9	0,012
762,4	0,012
762,8	0,012
763,3	0,012
763,7	0,012
764,1	0,012
764,6	0,011
765	0,011
765,4	0,01
765,9	0,01
766,3	0,01
766,7	0,01
767,2	0,01
767,6	0,01
768	0,01
768,5	0,01
768,9	0,011
769,3	0,011
769,8	0,011
770,2	0,011
770,6	0,011
771,1	0,012
771,5	0,012
771,9	0,012
772,4	0,012
772,8	0,012
773,2	0,012
773,7	0,012
774,1	0,012
774,5	0,013
775	0,013
775,4	0,012
775,8	0,013
776,3	0,012
776,7	0,012
777,1	0,012
777,6	0,012
778	0,012
778,4	0,012
778,9	0,012
779,3	0,012
779,7	0,012
780,2	0,012
780,6	0,012
781	0,012
781,5	0,012
781,9	0,013
782,3	0,013
782,8	0,013
783,2	0,012
783,6	0,012
784,1	0,013
784,5	0,012
784,9	0,012
785,4	0,012
785,8	0,011
786,2	0,011
786,7	0,011
787,1	0,01
787,5	0,01
788	0,01
788,4	0,01
788,8	0,01
789,3	0,009
789,7	0,009
790,1	0,009
790,6	0,009
791	0,009
791,4	0,009
791,9	0,01
792,3	0,011
792,7	0,011
793,2	0,011
793,6	0,011
794	0,011
794,5	0,011
794,9	0,011
795,3	0,011
795,8	0,011
796,2	0,011
796,6	0,011
797,1	0,011
797,5	0,011
797,9	0,011
798,4	0,011
798,8	0,011
799,2	0,011
799,7	0,012
800,1	0,012
800,5	0,011
801	0,012
801,4	0,012
801,8	0,011
802,2	0,011
802,7	0,011
803,1	0,011
803,5	0,011
804	0,011
804,4	0,011
804,8	0,011
805,3	0,011
805,7	0,011
806,1	0,011
806,6	0,011
807	0,011
807,4	0,011
807,9	0,011
808,3	0,011
808,7	0,012
809,2	0,012
809,6	0,012
810	0,012
810,4	0,012
810,9	0,011
811,3	0,011
811,7	0,011
812,2	0,011
812,6	0,01
813	0,01
813,5	0,01
813,9	0,01
814,3	0,01
814,8	0,01
815,2	0,009
815,6	0,009
816,1	0,01
816,5	0,01
816,9	0,01
817,3	0,01
817,8	0,01
818,2	0,01
818,6	0,01
819,1	0,01
819,5	0,01
819,9	0,011
820,4	0,011
820,8	0,011
821,2	0,011
821,7	0,012
822,1	0,012
822,5	0,012
822,9	0,012
823,4	0,011
823,8	0,011
824,2	0,011
824,7	0,011
825,1	0,01
825,5	0,01
826	0,01
826,4	0,01
826,8	0,01
827,3	0,01
827,7	0,011
828,1	0,011
828,5	0,011
829	0,011
829,4	0,011
829,8	0,011
830,3	0,011
830,7	0,011
831,1	0,012
831,6	0,012
832	0,011
832,4	0,011
832,8	0,011
833,3	0,011
833,7	0,011
834,1	0,011
834,6	0,011
835	0,011
835,4	0,011
835,8	0,011
836,3	0,011
836,7	0,011
837,1	0,011
837,6	0,011
838	0,012
838,4	0,012
838,9	0,012
839,3	0,012
839,7	0,012
840,1	0,012
840,6	0,011
841	0,011
841,4	0,011
841,9	0,011
842,3	0,011
842,7	0,011
843,1	0,011
843,6	0,011
844	0,011
844,4	0,011
844,9	0,01
845,3	0,01
845,7	0,01
846,2	0,01
846,6	0,01
847	0,01
847,4	0,011
847,9	0,011
848,3	0,012
848,7	0,012
849,2	0,012
849,6	0,012
850	0,012
850,4	0,012
850,9	0,012
851,3	0,012
851,7	0,012
852,2	0,012
852,6	0,012
853	0,011
853,4	0,011
853,9	0,011
854,3	0,011
854,7	0,011
855,2	0,011
855,6	0,012
856	0,012
856,4	0,012
856,9	0,012
857,3	0,012
857,7	0,011
858,2	0,012
858,6	0,012
859	0,012
859,4	0,012
859,9	0,012
860,3	0,012
860,7	0,012
861,1	0,011
861,6	0,011
862	0,011
862,4	0,011
862,9	0,011
863,3	0,011
863,7	0,011
864,1	0,011
864,6	0,011
865	0,011
865,4	0,011
865,9	0,011
866,3	0,011
866,7	0,011
867,1	0,01
867,6	0,01
868	0,01
868,4	0,009
868,8	0,01
869,3	0,01
869,7	0,01
870,1	0,01
870,6	0,011
871	0,011
871,4	0,011
871,8	0,01
872,3	0,01
872,7	0,01
873,1	0,01
873,5	0,01
874	0,01
874,4	0,01
874,8	0,01
875,3	0,01
875,7	0,011
876,1	0,011
876,5	0,011
877	0,011
877,4	0,011
877,8	0,011
878,2	0,011
878,7	0,012
879,1	0,012
879,5	0,012
879,9	0,012
880,4	0,011
880,8	0,012
881,2	0,012
881,7	0,012
882,1	0,012
882,5	0,012
882,9	0,012
883,4	0,012
883,8	0,012
884,2	0,011
884,6	0,011
885,1	0,012
885,5	0,011
885,9	0,011
886,3	0,011
886,8	0,011
887,2	0,011
887,6	0,011
888	0,011
888,5	0,012
888,9	0,012
889,3	0,011
889,8	0,011
890,2	0,011
890,6	0,011
891	0,011
891,5	0,01
891,9	0,011
892,3	0,011
892,7	0,011
893,2	0,011
893,6	0,011
894	0,011
894,4	0,011
894,9	0,011
895,3	0,011
895,7	0,011
896,1	0,011
896,6	0,011
897	0,011
897,4	0,011
897,8	0,01
898,3	0,011
898,7	0,011
899,1	0,01
899,5	0,011
900	0,011
900,4	0,011
900,8	0,011
901,2	0,01
901,7	0,01
902,1	0,01
902,5	0,01
902,9	0,009
903,4	0,009
903,8	0,009
904,2	0,009
904,6	0,009
905,1	0,01
905,5	0,01
905,9	0,011
906,3	0,011
906,8	0,011
907,2	0,011
907,6	0,011
908	0,011
908,5	0,011
908,9	0,011
909,3	0,011
909,7	0,011
910,2	0,011
910,6	0,011
911	0,011
911,4	0,011
911,9	0,011
912,3	0,011
912,7	0,01
913,1	0,011
913,6	0,011
914	0,011
914,4	0,011
914,8	0,011
915,3	0,011
915,7	0,012
916,1	0,011
916,5	0,012
916,9	0,012
917,4	0,012
917,8	0,011
918,2	0,011
918,6	0,012
919,1	0,012
919,5	0,011
919,9	0,011
920,3	0,011
920,8	0,011
921,2	0,011
921,6	0,011
922	0,011
922,5	0,011
922,9	0,012
923,3	0,012
923,7	0,011
924,2	0,011
924,6	0,011
925	0,011
925,4	0,012
925,8	0,011
926,3	0,012
926,7	0,011
927,1	0,012
927,5	0,012
928	0,011
928,4	0,011
928,8	0,011
929,2	0,011
929,7	0,011
930,1	0,011
930,5	0,011
930,9	0,011
931,3	0,011
931,8	0,01
932,2	0,01
932,6	0,01
933	0,009
933,5	0,009
933,9	0,009
934,3	0,009
934,7	0,009
935,2	0,009
935,6	0,009
936	0,009
936,4	0,009
936,8	0,009
937,3	0,01
937,7	0,01
938,1	0,01
938,5	0,01
939	0,01
939,4	0,01
939,8	0,01
940,2	0,01
940,6	0,01
941,1	0,011
941,5	0,011
941,9	0,011
942,3	0,012
942,8	0,012
943,2	0,012
943,6	0,012
944	0,011
944,4	0,011
944,9	0,011
945,3	0,011
945,7	0,011
946,1	0,012
946,6	0,012
947	0,013
947,4	0,014
947,8	0,014
948,2	0,014
948,7	0,014
949,1	0,013
949,5	0,013
949,9	0,012
950,3	0,012
950,8	0,012
951,2	0,012
951,6	0,013
952	0,013
952,5	0,013
952,9	0,013
953,3	0,014
953,7	0,014
954,1	0,013
954,6	0,013
955	0,013
955,4	0,014
955,8	0,014
956,2	0,013
956,7	0,013
957,1	0,014
957,5	0,014
957,9	0,013
958,3	0,014
958,8	0,013
959,2	0,013
959,6	0,013
960	0,012
960,5	0,012
960,9	0,013
961,3	0,013
961,7	0,013
962,1	0,013
962,6	0,014
963	0,013
963,4	0,013
963,8	0,013
964,2	0,012
964,7	0,012
965,1	0,013
965,5	0,013
965,9	0,013
966,3	0,013
966,8	0,013
967,2	0,014
967,6	0,014
968	0,014
968,4	0,014
968,9	0,015
969,3	0,015
969,7	0,015
970,1	0,015
970,5	0,015
971	0,015
971,4	0,015
971,8	0,015
972,2	0,014
972,6	0,014
973,1	0,014
973,5	0,014
973,9	0,014
974,3	0,014
974,7	0,013
975,2	0,014
975,6	0,014
976	0,014
976,4	0,014
976,8	0,014
977,3	0,014
977,7	0,014
978,1	0,014
978,5	0,013
978,9	0,013
979,4	0,012
979,8	0,013
980,2	0,013
980,6	0,012
981	0,013
981,5	0,012
981,9	0,012
982,3	0,013
982,7	0,013
983,1	0,013
983,6	0,013
984	0,013
984,4	0,013
984,8	0,014
985,2	0,014
985,6	0,013
986,1	0,014
986,5	0,014
986,9	0,015
987,3	0,015
987,7	0,014
988,2	0,014
988,6	0,013
989	0,013
989,4	0,012
989,8	0,011
990,3	0,011
990,7	0,011
991,1	0,011
991,5	0,012
991,9	0,012
992,3	0,012
992,8	0,012
993,2	0,012
993,6	0,011
994	0,011
994,4	0,011
994,9	0,011
995,3	0,011
995,7	0,011
996,1	0,01
996,5	0,011
996,9	0,012
997,4	0,012
997,8	0,012
998,2	0,012
998,6	0,011
999	0,011
999,5	0,01
999,9	0,01
1000,3	0,009
1000,7	0,009
1001,1	0,01
1001,5	0,01
1002	0,011
1002,4	0,011
1002,8	0,011
1003,2	0,011
1003,6	0,011
1004	0,011
1004,5	0,011
1004,9	0,011
1005,3	0,012
1005,7	0,012
1006,1	0,012
1006,6	0,012
1007	0,013
1007,4	0,013
1007,8	0,013
1008,2	0,012
1008,6	0,012
1009,1	0,012
1009,5	0,012
1009,9	0,011
1010,3	0,011
1010,7	0,01
1011,1	0,011
1011,6	0,012
1012	0,011
1012,4	0,011
1012,8	0,011
1013,2	0,011
1013,6	0,011
1014,1	0,011
1014,5	0,011
1014,9	0,012
1015,3	0,012
1015,7	0,012
1016,1	0,012
1016,6	0,011
1017	0,011
1017,4	0,011
1017,8	0,011
1018,2	0,01
1018,6	0,009
1019,1	0,01
1019,5	0,01
1019,9	0,01
1020,3	0,01
1020,7	0,01
1021,1	0,01
1021,6	0,01
1022	0,009
1022,4	0,01
1022,8	0,01
1023,2	0,01
1023,6	0,01
1024,1	0,011
1024,5	0,011
1024,9	0,011
1025,3	0,011
1025,7	0,011
1026,1	0,011
1026,6	0,012
1027	0,011
1027,4	0,011
1027,8	0,011
1028,2	0,01
1028,6	0,01
1029	0,01
1029,5	0,011
1029,9	0,011
1030,3	0,011
1030,7	0,01
1031,1	0,011
1031,5	0,011
1032	0,011
1032,4	0,011
1032,8	0,01
1033,2	0,01
1033,6	0,011
1034	0,01
1034,4	0,011
1034,9	0,011
1035,3	0,011
1035,7	0,012
1036,1	0,012
1036,5	0,012
1036,9	0,012
1037,4	0,013
1037,8	0,013
1038,2	0,013
1038,6	0,013
1039	0,014
1039,4	0,014
1039,8	0,014
1040,3	0,014
1040,7	0,014
1041,1	0,013
1041,5	0,013
1041,9	0,013
1042,3	0,012
1042,7	0,011
1043,2	0,012
1043,6	0,012
1044	0,012
1044,4	0,013
1044,8	0,012
1045,2	0,013
1045,6	0,014
1046,1	0,014
1046,5	0,013
1046,9	0,014
1047,3	0,014
1047,7	0,014
1048,1	0,013
1048,5	0,013
1049	0,013
1049,4	0,014
1049,8	0,013
1050,2	0,013
1050,6	0,014
1051	0,014
1051,4	0,014
1051,9	0,015
1052,3	0,015
1052,7	0,015
1053,1	0,016
1053,5	0,015
1053,9	0,015
1054,3	0,015
1054,8	0,014
1055,2	0,013
1055,6	0,013
1056	0,013
1056,4	0,014
1056,8	0,014
1057,2	0,015
1057,6	0,015
1058,1	0,016
1058,5	0,016
1058,9	0,016
1059,3	0,017
1059,7	0,017
1060,1	0,017
1060,5	0,018
1061	0,016
1061,4	0,016
1061,8	0,016
1062,2	0,016
1062,6	0,016
1063	0,015
1063,4	0,014
1063,8	0,015
1064,3	0,015
1064,7	0,015
1065,1	0,015
1065,5	0,015
1065,9	0,016
1066,3	0,016
1066,7	0,016
1067,1	0,016
1067,6	0,016
1068	0,016
1068,4	0,016
1068,8	0,015
1069,2	0,015
1069,6	0,014
1070	0,014
1070,4	0,014
1070,9	0,016
1071,3	0,015
1071,7	0,016
1072,1	0,015
1072,5	0,015
1072,9	0,014
1073,3	0,015
1073,7	0,015
1074,2	0,015
1074,6	0,016
1075	0,017
1075,4	0,018
1075,8	0,019
1076,2	0,018
1076,6	0,017
1077	0,017
1077,5	0,017
1077,9	0,017
1078,3	0,017
1078,7	0,016
1079,1	0,017
1079,5	0,018
1079,9	0,019
1080,3	0,019
1080,7	0,018
1081,2	0,018
1081,6	0,018
1082	0,02
1082,4	0,018
1082,8	0,017
1083,2	0,017
1083,6	0,017
1084	0,017
1084,5	0,016
1084,9	0,015
1085,3	0,015
1085,7	0,016
1086,1	0,016
1086,5	0,019
1086,9	0,02
1087,3	0,02
1087,7	0,02
1088,2	0,02
1088,6	0,018
1089	0,019
1089,4	0,02
1089,8	0,017
1090,2	0,015
1090,6	0,018
1091	0,023
1091,4	0,026
1091,9	0,024
1092,3	0,022
1092,7	0,021
1093,1	0,025
1093,5	0,024
1093,9	0,023
1094,3	0,02
1094,7	0,027
1095,1	0,032
1095,5	0,04
1096	0,038
1096,4	0,045
1096,8	0,042
1097,2	0,048
1097,6	0,041
1098	0,04
1098,4	0,044
1098,8	0,049
1099,2	0,046
1099,6	0,046
1100,1	0,042
1100,5	0,051
1100,9	0,046
1101,3	0,05
1101,7	0,055
1102,1	0,051
1102,5	0,048
1102,9	0,057
1103,3	0,049
1103,7	0,055
1104,2	0,045
1104,6	0,04
1105	0,045
1105,4	0,048
1105,8	0,052
1106,2	0,058
1106,6	0,064
1107	0,05
1107,4	0,066
1107,8	0,071
1108,3	-0,938
