Data from Absorbance_176.txt Node
Date: Fri Nov 13 20:22:15 MSK 2020
User: vat
Spectrometer: MAYP114033
Trigger mode: 0
Integration Time (sec): 8,000000E-3
Scans to average: 10
Electric dark correction enabled: true
Nonlinearity correction enabled: false
Boxcar width: 3
XAxis mode: Wavelengths
Number of Pixels in Spectrum: 2068
>>>>>Begin Spectral Data<<<<<
199,4	-0
199,9	1,827
200,4	0,404
200,8	0,278
201,3	0,135
201,8	0,118
202,2	0,109
202,7	0,104
203,2	0,081
203,6	0,083
204,1	0,085
204,6	0,087
205	0,097
205,5	0,11
206	0,122
206,4	0,127
206,9	0,113
207,4	0,103
207,8	0,103
208,3	0,09
208,8	0,07
209,2	0,054
209,7	0,041
210,2	0,037
210,6	0,035
211,1	0,042
211,5	0,053
212	0,053
212,5	0,063
212,9	0,087
213,4	0,089
213,9	0,089
214,3	0,096
214,8	0,101
215,3	0,106
215,7	0,116
216,2	0,102
216,7	0,107
217,1	0,113
217,6	0,086
218,1	0,076
218,5	0,083
219	0,076
219,5	0,078
219,9	0,096
220,4	0,092
220,9	0,116
221,3	0,119
221,8	0,115
222,3	0,11
222,7	0,129
223,2	0,123
223,6	0,126
224,1	0,129
224,6	0,141
225	0,139
225,5	0,136
226	0,127
226,4	0,111
226,9	0,108
227,4	0,101
227,8	0,092
228,3	0,093
228,8	0,11
229,2	0,108
229,7	0,122
230,2	0,112
230,6	0,116
231,1	0,114
231,5	0,108
232	0,094
232,5	0,096
232,9	0,108
233,4	0,132
233,9	0,121
234,3	0,126
234,8	0,128
235,3	0,127
235,7	0,122
236,2	0,122
236,7	0,127
237,1	0,158
237,6	0,171
238,1	0,177
238,5	0,183
239	0,194
239,4	0,2
239,9	0,192
240,4	0,17
240,8	0,154
241,3	0,163
241,8	0,169
242,2	0,18
242,7	0,166
243,2	0,166
243,6	0,173
244,1	0,179
244,6	0,183
245	0,187
245,5	0,183
245,9	0,202
246,4	0,208
246,9	0,212
247,3	0,222
247,8	0,227
248,3	0,241
248,7	0,248
249,2	0,261
249,7	0,272
250,1	0,282
250,6	0,285
251	0,282
251,5	0,282
252	0,285
252,4	0,285
252,9	0,286
253,4	0,288
253,8	0,292
254,3	0,299
254,8	0,304
255,2	0,308
255,7	0,314
256,1	0,32
256,6	0,325
257,1	0,332
257,5	0,337
258	0,345
258,5	0,352
258,9	0,359
259,4	0,368
259,9	0,376
260,3	0,385
260,8	0,395
261,2	0,403
261,7	0,413
262,2	0,422
262,6	0,431
263,1	0,44
263,6	0,449
264	0,459
264,5	0,47
264,9	0,48
265,4	0,491
265,9	0,501
266,3	0,512
266,8	0,522
267,3	0,532
267,7	0,542
268,2	0,553
268,7	0,562
269,1	0,574
269,6	0,584
270	0,595
270,5	0,605
271	0,614
271,4	0,623
271,9	0,633
272,4	0,642
272,8	0,652
273,3	0,661
273,7	0,67
274,2	0,68
274,7	0,689
275,1	0,697
275,6	0,704
276,1	0,711
276,5	0,718
277	0,724
277,4	0,731
277,9	0,738
278,4	0,743
278,8	0,748
279,3	0,752
279,8	0,755
280,2	0,759
280,7	0,762
281,1	0,762
281,6	0,763
282,1	0,764
282,5	0,765
283	0,766
283,4	0,765
283,9	0,763
284,4	0,761
284,8	0,758
285,3	0,754
285,8	0,751
286,2	0,745
286,7	0,739
287,1	0,733
287,6	0,727
288,1	0,719
288,5	0,711
289	0,702
289,5	0,693
289,9	0,683
290,4	0,672
290,8	0,661
291,3	0,651
291,8	0,639
292,2	0,627
292,7	0,613
293,1	0,6
293,6	0,587
294,1	0,574
294,5	0,56
295	0,545
295,5	0,532
295,9	0,517
296,4	0,503
296,8	0,487
297,3	0,472
297,8	0,457
298,2	0,442
298,7	0,427
299,1	0,412
299,6	0,397
300,1	0,384
300,5	0,371
301	0,357
301,5	0,343
301,9	0,33
302,4	0,317
302,8	0,305
303,3	0,293
303,8	0,28
304,2	0,268
304,7	0,257
305,1	0,246
305,6	0,236
306,1	0,226
306,5	0,216
307	0,207
307,4	0,198
307,9	0,19
308,4	0,183
308,8	0,174
309,3	0,168
309,8	0,161
310,2	0,154
310,7	0,148
311,1	0,142
311,6	0,136
312,1	0,131
312,5	0,126
313	0,121
313,4	0,116
313,9	0,111
314,4	0,107
314,8	0,103
315,3	0,099
315,7	0,096
316,2	0,093
316,7	0,09
317,1	0,088
317,6	0,086
318	0,083
318,5	0,081
319	0,079
319,4	0,076
319,9	0,075
320,3	0,073
320,8	0,071
321,3	0,069
321,7	0,068
322,2	0,067
322,6	0,066
323,1	0,065
323,6	0,064
324	0,063
324,5	0,062
324,9	0,061
325,4	0,06
325,9	0,059
326,3	0,058
326,8	0,058
327,2	0,057
327,7	0,057
328,2	0,056
328,6	0,056
329,1	0,056
329,5	0,055
330	0,055
330,5	0,054
330,9	0,054
331,4	0,053
331,8	0,053
332,3	0,052
332,8	0,052
333,2	0,051
333,7	0,051
334,1	0,05
334,6	0,049
335,1	0,049
335,5	0,049
336	0,048
336,4	0,048
336,9	0,048
337,4	0,049
337,8	0,049
338,3	0,048
338,7	0,049
339,2	0,048
339,7	0,048
340,1	0,048
340,6	0,048
341	0,047
341,5	0,047
342	0,046
342,4	0,046
342,9	0,046
343,3	0,046
343,8	0,045
344,2	0,045
344,7	0,045
345,2	0,045
345,6	0,045
346,1	0,045
346,5	0,045
347	0,045
347,5	0,045
347,9	0,045
348,4	0,045
348,8	0,045
349,3	0,045
349,8	0,045
350,2	0,044
350,7	0,044
351,1	0,044
351,6	0,043
352	0,043
352,5	0,043
353	0,043
353,4	0,043
353,9	0,042
354,3	0,042
354,8	0,042
355,3	0,042
355,7	0,042
356,2	0,041
356,6	0,04
357,1	0,041
357,5	0,042
358	0,041
358,5	0,041
358,9	0,041
359,4	0,041
359,8	0,041
360,3	0,041
360,8	0,041
361,2	0,041
361,7	0,041
362,1	0,04
362,6	0,041
363	0,041
363,5	0,04
364	0,04
364,4	0,04
364,9	0,039
365,3	0,04
365,8	0,039
366,3	0,039
366,7	0,039
367,2	0,038
367,6	0,038
368,1	0,038
368,5	0,037
369	0,037
369,5	0,037
369,9	0,037
370,4	0,038
370,8	0,038
371,3	0,038
371,7	0,037
372,2	0,037
372,7	0,037
373,1	0,037
373,6	0,037
374	0,037
374,5	0,037
374,9	0,037
375,4	0,037
375,9	0,037
376,3	0,036
376,8	0,036
377,2	0,035
377,7	0,035
378,2	0,035
378,6	0,035
379,1	0,035
379,5	0,035
380	0,035
380,4	0,035
380,9	0,034
381,4	0,034
381,8	0,034
382,3	0,033
382,7	0,033
383,2	0,034
383,6	0,034
384,1	0,034
384,6	0,034
385	0,034
385,5	0,033
385,9	0,033
386,4	0,033
386,8	0,033
387,3	0,033
387,7	0,033
388,2	0,034
388,7	0,034
389,1	0,034
389,6	0,033
390	0,033
390,5	0,033
390,9	0,032
391,4	0,032
391,9	0,032
392,3	0,032
392,8	0,032
393,2	0,032
393,7	0,031
394,1	0,031
394,6	0,031
395,1	0,031
395,5	0,031
396	0,031
396,4	0,031
396,9	0,031
397,3	0,031
397,8	0,031
398,2	0,03
398,7	0,03
399,2	0,03
399,6	0,029
400,1	0,029
400,5	0,029
401	0,029
401,4	0,029
401,9	0,029
402,4	0,029
402,8	0,029
403,3	0,029
403,7	0,029
404,2	0,028
404,6	0,028
405,1	0,028
405,5	0,028
406	0,028
406,5	0,028
406,9	0,027
407,4	0,028
407,8	0,027
408,3	0,027
408,7	0,027
409,2	0,027
409,6	0,027
410,1	0,027
410,6	0,027
411	0,027
411,5	0,027
411,9	0,027
412,4	0,027
412,8	0,027
413,3	0,027
413,7	0,027
414,2	0,027
414,7	0,028
415,1	0,028
415,6	0,028
416	0,028
416,5	0,028
416,9	0,028
417,4	0,028
417,8	0,028
418,3	0,028
418,8	0,028
419,2	0,027
419,7	0,027
420,1	0,027
420,6	0,027
421	0,026
421,5	0,026
421,9	0,026
422,4	0,027
422,8	0,027
423,3	0,026
423,8	0,026
424,2	0,025
424,7	0,025
425,1	0,025
425,6	0,025
426	0,024
426,5	0,024
426,9	0,024
427,4	0,024
427,9	0,024
428,3	0,023
428,8	0,024
429,2	0,024
429,7	0,024
430,1	0,025
430,6	0,024
431	0,025
431,5	0,025
431,9	0,025
432,4	0,025
432,8	0,025
433,3	0,025
433,8	0,026
434,2	0,025
434,7	0,025
435,1	0,025
435,6	0,025
436	0,024
436,5	0,024
436,9	0,024
437,4	0,023
437,8	0,024
438,3	0,023
438,8	0,023
439,2	0,024
439,7	0,023
440,1	0,023
440,6	0,024
441	0,024
441,5	0,024
441,9	0,024
442,4	0,024
442,8	0,024
443,3	0,023
443,7	0,023
444,2	0,023
444,7	0,023
445,1	0,023
445,6	0,023
446	0,024
446,5	0,023
446,9	0,023
447,4	0,023
447,8	0,023
448,3	0,023
448,7	0,022
449,2	0,022
449,6	0,022
450,1	0,022
450,6	0,022
451	0,022
451,5	0,023
451,9	0,023
452,4	0,023
452,8	0,023
453,3	0,023
453,7	0,023
454,2	0,022
454,6	0,022
455,1	0,021
455,5	0,021
456	0,021
456,4	0,021
456,9	0,021
457,3	0,021
457,8	0,021
458,3	0,021
458,7	0,021
459,2	0,021
459,6	0,021
460,1	0,022
460,5	0,022
461	0,022
461,4	0,022
461,9	0,022
462,3	0,022
462,8	0,022
463,2	0,022
463,7	0,022
464,1	0,022
464,6	0,021
465	0,021
465,5	0,021
466	0,02
466,4	0,02
466,9	0,02
467,3	0,02
467,8	0,02
468,2	0,02
468,7	0,02
469,1	0,02
469,6	0,02
470	0,02
470,5	0,02
470,9	0,02
471,4	0,02
471,8	0,02
472,3	0,019
472,7	0,019
473,2	0,02
473,6	0,019
474,1	0,019
474,5	0,019
475	0,019
475,4	0,019
475,9	0,019
476,4	0,019
476,8	0,019
477,3	0,019
477,7	0,02
478,2	0,02
478,6	0,02
479,1	0,02
479,5	0,02
480	0,02
480,4	0,02
480,9	0,02
481,3	0,02
481,8	0,019
482,2	0,019
482,7	0,019
483,1	0,02
483,6	0,02
484	0,02
484,5	0,019
484,9	0,019
485,4	0,019
485,8	0,019
486,3	0,019
486,7	0,019
487,2	0,019
487,6	0,019
488,1	0,019
488,5	0,019
489	0,019
489,4	0,018
489,9	0,018
490,4	0,018
490,8	0,018
491,3	0,018
491,7	0,018
492,2	0,018
492,6	0,019
493,1	0,019
493,5	0,02
494	0,019
494,4	0,018
494,9	0,018
495,3	0,017
495,8	0,017
496,2	0,017
496,7	0,017
497,1	0,017
497,6	0,018
498	0,018
498,5	0,018
498,9	0,018
499,4	0,018
499,8	0,018
500,3	0,017
500,7	0,017
501,2	0,017
501,6	0,017
502,1	0,017
502,5	0,017
503	0,017
503,4	0,017
503,9	0,017
504,3	0,017
504,8	0,017
505,2	0,017
505,7	0,017
506,1	0,016
506,6	0,016
507	0,015
507,5	0,015
507,9	0,015
508,4	0,015
508,8	0,015
509,3	0,016
509,7	0,016
510,2	0,016
510,6	0,016
511,1	0,016
511,5	0,016
512	0,016
512,4	0,016
512,9	0,016
513,3	0,015
513,8	0,016
514,2	0,016
514,7	0,016
515,1	0,016
515,6	0,016
516	0,016
516,5	0,016
516,9	0,016
517,4	0,015
517,8	0,015
518,3	0,015
518,7	0,015
519,2	0,014
519,6	0,015
520,1	0,015
520,5	0,015
521	0,015
521,4	0,016
521,9	0,016
522,3	0,016
522,8	0,015
523,2	0,015
523,7	0,015
524,1	0,015
524,6	0,014
525	0,014
525,5	0,014
525,9	0,014
526,4	0,014
526,8	0,014
527,3	0,014
527,7	0,014
528,2	0,014
528,6	0,014
529,1	0,013
529,5	0,013
530	0,013
530,4	0,013
530,9	0,013
531,3	0,014
531,8	0,014
532,2	0,014
532,6	0,014
533,1	0,014
533,5	0,014
534	0,014
534,4	0,014
534,9	0,014
535,3	0,014
535,8	0,013
536,2	0,013
536,7	0,013
537,1	0,013
537,6	0,014
538	0,014
538,5	0,014
538,9	0,015
539,4	0,015
539,8	0,014
540,3	0,014
540,7	0,014
541,2	0,013
541,6	0,014
542,1	0,013
542,5	0,012
543	0,012
543,4	0,012
543,9	0,012
544,3	0,012
544,8	0,012
545,2	0,012
545,7	0,012
546,1	0,012
546,5	0,012
547	0,012
547,4	0,012
547,9	0,012
548,3	0,012
548,8	0,012
549,2	0,012
549,7	0,012
550,1	0,011
550,6	0,011
551	0,012
551,5	0,012
551,9	0,011
552,4	0,011
552,8	0,011
553,3	0,012
553,7	0,011
554,2	0,011
554,6	0,011
555,1	0,011
555,5	0,011
555,9	0,011
556,4	0,011
556,8	0,011
557,3	0,011
557,7	0,011
558,2	0,011
558,6	0,011
559,1	0,011
559,5	0,01
560	0,01
560,4	0,01
560,9	0,01
561,3	0,01
561,8	0,01
562,2	0,01
562,7	0,011
563,1	0,011
563,6	0,011
564	0,011
564,4	0,01
564,9	0,01
565,3	0,01
565,8	0,01
566,2	0,01
566,7	0,01
567,1	0,01
567,6	0,01
568	0,01
568,5	0,01
568,9	0,01
569,4	0,01
569,8	0,01
570,3	0,01
570,7	0,01
571,1	0,01
571,6	0,01
572	0,01
572,5	0,01
572,9	0,01
573,4	0,01
573,8	0,01
574,3	0,009
574,7	0,009
575,2	0,009
575,6	0,009
576,1	0,009
576,5	0,009
576,9	0,009
577,4	0,009
577,8	0,009
578,3	0,009
578,7	0,009
579,2	0,009
579,6	0,009
580,1	0,009
580,5	0,009
581	0,009
581,4	0,009
581,9	0,009
582,3	0,009
582,7	0,009
583,2	0,009
583,6	0,009
584,1	0,009
584,5	0,009
585	0,009
585,4	0,009
585,9	0,009
586,3	0,009
586,8	0,008
587,2	0,008
587,6	0,009
588,1	0,009
588,5	0,009
589	0,009
589,4	0,009
589,9	0,009
590,3	0,01
590,8	0,009
591,2	0,009
591,7	0,008
592,1	0,008
592,5	0,008
593	0,008
593,4	0,008
593,9	0,008
594,3	0,008
594,8	0,008
595,2	0,008
595,7	0,008
596,1	0,008
596,6	0,008
597	0,008
597,4	0,007
597,9	0,008
598,3	0,008
598,8	0,008
599,2	0,007
599,7	0,008
600,1	0,008
600,6	0,008
601	0,007
601,4	0,007
601,9	0,007
602,3	0,007
602,8	0,007
603,2	0,007
603,7	0,007
604,1	0,007
604,6	0,007
605	0,007
605,4	0,007
605,9	0,007
606,3	0,007
606,8	0,007
607,2	0,007
607,7	0,007
608,1	0,007
608,6	0,007
609	0,007
609,4	0,006
609,9	0,006
610,3	0,006
610,8	0,006
611,2	0,006
611,7	0,007
612,1	0,007
612,6	0,007
613	0,007
613,4	0,007
613,9	0,007
614,3	0,007
614,8	0,006
615,2	0,006
615,7	0,006
616,1	0,006
616,6	0,006
617	0,006
617,4	0,006
617,9	0,007
618,3	0,007
618,8	0,007
619,2	0,007
619,7	0,007
620,1	0,007
620,5	0,007
621	0,007
621,4	0,007
621,9	0,007
622,3	0,007
622,8	0,007
623,2	0,007
623,6	0,007
624,1	0,007
624,5	0,006
625	0,006
625,4	0,006
625,9	0,006
626,3	0,006
626,8	0,005
627,2	0,006
627,6	0,006
628,1	0,006
628,5	0,006
629	0,006
629,4	0,006
629,9	0,006
630,3	0,006
630,7	0,006
631,2	0,006
631,6	0,005
632,1	0,005
632,5	0,005
633	0,005
633,4	0,005
633,8	0,006
634,3	0,006
634,7	0,006
635,2	0,006
635,6	0,006
636,1	0,005
636,5	0,005
636,9	0,005
637,4	0,005
637,8	0,004
638,3	0,005
638,7	0,005
639,2	0,006
639,6	0,005
640	0,006
640,5	0,006
640,9	0,006
641,4	0,006
641,8	0,006
642,2	0,006
642,7	0,006
643,1	0,006
643,6	0,006
644	0,006
644,5	0,006
644,9	0,006
645,3	0,005
645,8	0,005
646,2	0,006
646,7	0,006
647,1	0,006
647,6	0,006
648	0,006
648,4	0,006
648,9	0,005
649,3	0,005
649,8	0,005
650,2	0,005
650,6	0,005
651,1	0,005
651,5	0,005
652	0,005
652,4	0,005
652,9	0,005
653,3	0,006
653,7	0,009
654,2	0,006
654,6	0,004
655,1	0,003
655,5	0,004
655,9	0,004
656,4	0,003
656,8	0,002
657,3	0,002
657,7	0,003
658,2	0,004
658,6	0,004
659	0,004
659,5	0,004
659,9	0,003
660,4	0,004
660,8	0,004
661,2	0,004
661,7	0,004
662,1	0,003
662,6	0,004
663	0,003
663,4	0,003
663,9	0,004
664,3	0,003
664,8	0,004
665,2	0,004
665,6	0,003
666,1	0,004
666,5	0,004
667	0,003
667,4	0,003
667,9	0,003
668,3	0,003
668,7	0,003
669,2	0,004
669,6	0,003
670,1	0,003
670,5	0,004
670,9	0,004
671,4	0,005
671,8	0,005
672,3	0,004
672,7	0,005
673,1	0,005
673,6	0,005
674	0,004
674,5	0,004
674,9	0,004
675,3	0,004
675,8	0,004
676,2	0,004
676,7	0,004
677,1	0,004
677,5	0,004
678	0,005
678,4	0,004
678,9	0,004
679,3	0,004
679,7	0,004
680,2	0,003
680,6	0,003
681,1	0,003
681,5	0,003
681,9	0,004
682,4	0,004
682,8	0,004
683,3	0,004
683,7	0,004
684,1	0,004
684,6	0,004
685	0,004
685,5	0,004
685,9	0,004
686,3	0,004
686,8	0,004
687,2	0,004
687,7	0,004
688,1	0,004
688,5	0,004
689	0,004
689,4	0,005
689,9	0,005
690,3	0,004
690,7	0,005
691,2	0,004
691,6	0,004
692	0,004
692,5	0,003
692,9	0,003
693,4	0,003
693,8	0,003
694,2	0,003
694,7	0,003
695,1	0,004
695,6	0,004
696	0,003
696,4	0,004
696,9	0,004
697,3	0,004
697,8	0,004
698,2	0,004
698,6	0,004
699,1	0,004
699,5	0,004
699,9	0,004
700,4	0,004
700,8	0,004
701,3	0,004
701,7	0,003
702,1	0,003
702,6	0,003
703	0,003
703,5	0,003
703,9	0,003
704,3	0,003
704,8	0,003
705,2	0,003
705,6	0,004
706,1	0,003
706,5	0,003
707	0,003
707,4	0,003
707,8	0,003
708,3	0,003
708,7	0,003
709,2	0,003
709,6	0,003
710	0,003
710,5	0,003
710,9	0,003
711,3	0,003
711,8	0,003
712,2	0,003
712,7	0,003
713,1	0,003
713,5	0,003
714	0,003
714,4	0,003
714,8	0,004
715,3	0,004
715,7	0,004
716,2	0,004
716,6	0,004
717	0,003
717,5	0,003
717,9	0,003
718,3	0,003
718,8	0,003
719,2	0,003
719,7	0,003
720,1	0,003
720,5	0,003
721	0,003
721,4	0,004
721,8	0,004
722,3	0,003
722,7	0,003
723,2	0,003
723,6	0,003
724	0,003
724,5	0,003
724,9	0,003
725,3	0,003
725,8	0,003
726,2	0,003
726,7	0,003
727,1	0,003
727,5	0,003
728	0,004
728,4	0,003
728,8	0,003
729,3	0,004
729,7	0,004
730,1	0,004
730,6	0,004
731	0,004
731,5	0,004
731,9	0,003
732,3	0,003
732,8	0,003
733,2	0,003
733,6	0,002
734,1	0,002
734,5	0,003
734,9	0,003
735,4	0,004
735,8	0,004
736,3	0,004
736,7	0,004
737,1	0,004
737,6	0,004
738	0,004
738,4	0,004
738,9	0,004
739,3	0,003
739,7	0,003
740,2	0,003
740,6	0,003
741,1	0,003
741,5	0,003
741,9	0,003
742,4	0,002
742,8	0,003
743,2	0,002
743,7	0,002
744,1	0,002
744,5	0,002
745	0,002
745,4	0,003
745,8	0,003
746,3	0,003
746,7	0,003
747,2	0,003
747,6	0,003
748	0,003
748,5	0,003
748,9	0,003
749,3	0,003
749,8	0,003
750,2	0,003
750,6	0,003
751,1	0,003
751,5	0,003
751,9	0,003
752,4	0,003
752,8	0,003
753,3	0,003
753,7	0,003
754,1	0,003
754,6	0,003
755	0,003
755,4	0,003
755,9	0,003
756,3	0,002
756,7	0,002
757,2	0,002
757,6	0,002
758	0,002
758,5	0,002
758,9	0,003
759,3	0,003
759,8	0,003
760,2	0,003
760,6	0,003
761,1	0,003
761,5	0,003
761,9	0,003
762,4	0,003
762,8	0,004
763,3	0,004
763,7	0,004
764,1	0,004
764,6	0,004
765	0,004
765,4	0,004
765,9	0,004
766,3	0,004
766,7	0,004
767,2	0,004
767,6	0,004
768	0,004
768,5	0,004
768,9	0,004
769,3	0,003
769,8	0,003
770,2	0,003
770,6	0,003
771,1	0,003
771,5	0,003
771,9	0,002
772,4	0,003
772,8	0,002
773,2	0,002
773,7	0,002
774,1	0,002
774,5	0,002
775	0,002
775,4	0,001
775,8	0,002
776,3	0,001
776,7	0,001
777,1	0,001
777,6	0,001
778	0,001
778,4	0,001
778,9	0,001
779,3	0,001
779,7	0,001
780,2	0,002
780,6	0,002
781	0,002
781,5	0,002
781,9	0,002
782,3	0,002
782,8	0,002
783,2	0,002
783,6	0,001
784,1	0,001
784,5	0,001
784,9	0,001
785,4	0,001
785,8	0,001
786,2	0,001
786,7	0,002
787,1	0,002
787,5	0,002
788	0,003
788,4	0,003
788,8	0,003
789,3	0,003
789,7	0,004
790,1	0,003
790,6	0,004
791	0,004
791,4	0,003
791,9	0,003
792,3	0,003
792,7	0,003
793,2	0,003
793,6	0,003
794	0,004
794,5	0,004
794,9	0,004
795,3	0,004
795,8	0,004
796,2	0,004
796,6	0,004
797,1	0,004
797,5	0,004
797,9	0,004
798,4	0,003
798,8	0,003
799,2	0,003
799,7	0,002
800,1	0,002
800,5	0,002
801	0,003
801,4	0,003
801,8	0,003
802,2	0,003
802,7	0,003
803,1	0,003
803,5	0,003
804	0,003
804,4	0,003
804,8	0,003
805,3	0,003
805,7	0,003
806,1	0,003
806,6	0,003
807	0,003
807,4	0,003
807,9	0,003
808,3	0,003
808,7	0,003
809,2	0,003
809,6	0,003
810	0,003
810,4	0,003
810,9	0,003
811,3	0,003
811,7	0,003
812,2	0,003
812,6	0,002
813	0,002
813,5	0,002
813,9	0,002
814,3	0,002
814,8	0,002
815,2	0,002
815,6	0,002
816,1	0,002
816,5	0,002
816,9	0,002
817,3	0,002
817,8	0,002
818,2	0,002
818,6	0,002
819,1	0,003
819,5	0,002
819,9	0,002
820,4	0,002
820,8	0,002
821,2	0,002
821,7	0,001
822,1	0,001
822,5	0,002
822,9	0,002
823,4	0,002
823,8	0,003
824,2	0,003
824,7	0,003
825,1	0,003
825,5	0,003
826	0,003
826,4	0,003
826,8	0,003
827,3	0,002
827,7	0,002
828,1	0,002
828,5	0,002
829	0,002
829,4	0,002
829,8	0,002
830,3	0,002
830,7	0,002
831,1	0,002
831,6	0,002
832	0,003
832,4	0,003
832,8	0,003
833,3	0,003
833,7	0,003
834,1	0,002
834,6	0,002
835	0,002
835,4	0,001
835,8	0,001
836,3	0,002
836,7	0,001
837,1	0,001
837,6	0,001
838	0,001
838,4	0,002
838,9	0,001
839,3	0,001
839,7	0,001
840,1	0,002
840,6	0,002
841	0,002
841,4	0,002
841,9	0,002
842,3	0,002
842,7	0,002
843,1	0,002
843,6	0,002
844	0,002
844,4	0,002
844,9	0,002
845,3	0,002
845,7	0,002
846,2	0,002
846,6	0,002
847	0,002
847,4	0,002
847,9	0,002
848,3	0,002
848,7	0,002
849,2	0,002
849,6	0,002
850	0,002
850,4	0,002
850,9	0,002
851,3	0,002
851,7	0,002
852,2	0,002
852,6	0,002
853	0,002
853,4	0,002
853,9	0,002
854,3	0,002
854,7	0,002
855,2	0,002
855,6	0,002
856	0,003
856,4	0,003
856,9	0,003
857,3	0,003
857,7	0,003
858,2	0,003
858,6	0,003
859	0,003
859,4	0,003
859,9	0,003
860,3	0,003
860,7	0,002
861,1	0,002
861,6	0,002
862	0,002
862,4	0,001
862,9	0,001
863,3	0,001
863,7	0,002
864,1	0,002
864,6	0,002
865	0,003
865,4	0,003
865,9	0,003
866,3	0,003
866,7	0,003
867,1	0,003
867,6	0,003
868	0,003
868,4	0,003
868,8	0,003
869,3	0,003
869,7	0,003
870,1	0,003
870,6	0,002
871	0,002
871,4	0,002
871,8	0,001
872,3	0,001
872,7	0,001
873,1	0,001
873,5	0,001
874	0,002
874,4	0,002
874,8	0,002
875,3	0,002
875,7	0,002
876,1	0,003
876,5	0,003
877	0,003
877,4	0,003
877,8	0,003
878,2	0,003
878,7	0,003
879,1	0,003
879,5	0,003
879,9	0,003
880,4	0,002
880,8	0,002
881,2	0,002
881,7	0,003
882,1	0,003
882,5	0,003
882,9	0,004
883,4	0,003
883,8	0,003
884,2	0,003
884,6	0,003
885,1	0,003
885,5	0,002
885,9	0,002
886,3	0,002
886,8	0,002
887,2	0,002
887,6	0,002
888	0,003
888,5	0,003
888,9	0,003
889,3	0,004
889,8	0,003
890,2	0,003
890,6	0,003
891	0,003
891,5	0,003
891,9	0,003
892,3	0,003
892,7	0,003
893,2	0,003
893,6	0,003
894	0,003
894,4	0,003
894,9	0,003
895,3	0,004
895,7	0,003
896,1	0,003
896,6	0,003
897	0,003
897,4	0,003
897,8	0,003
898,3	0,003
898,7	0,003
899,1	0,003
899,5	0,003
900	0,003
900,4	0,003
900,8	0,003
901,2	0,003
901,7	0,003
902,1	0,003
902,5	0,003
902,9	0,003
903,4	0,003
903,8	0,003
904,2	0,003
904,6	0,003
905,1	0,004
905,5	0,004
905,9	0,004
906,3	0,004
906,8	0,004
907,2	0,004
907,6	0,003
908	0,003
908,5	0,003
908,9	0,003
909,3	0,003
909,7	0,003
910,2	0,003
910,6	0,003
911	0,003
911,4	0,003
911,9	0,003
912,3	0,003
912,7	0,003
913,1	0,002
913,6	0,002
914	0,002
914,4	0,002
914,8	0,001
915,3	0,002
915,7	0,002
916,1	0,002
916,5	0,002
916,9	0,002
917,4	0,002
917,8	0,002
918,2	0,002
918,6	0,001
919,1	0,002
919,5	0,002
919,9	0,001
920,3	0,002
920,8	0,002
921,2	0,002
921,6	0,003
922	0,003
922,5	0,003
922,9	0,004
923,3	0,003
923,7	0,003
924,2	0,003
924,6	0,002
925	0,002
925,4	0,002
925,8	0,002
926,3	0,002
926,7	0,002
927,1	0,002
927,5	0,002
928	0,002
928,4	0,001
928,8	0,002
929,2	0,002
929,7	0,002
930,1	0,002
930,5	0,002
930,9	0,002
931,3	0,002
931,8	0,002
932,2	0,002
932,6	0,002
933	0,003
933,5	0,003
933,9	0,003
934,3	0,003
934,7	0,002
935,2	0,002
935,6	0,002
936	0,001
936,4	0,002
936,8	0,001
937,3	0,001
937,7	0,002
938,1	0,002
938,5	0,001
939	0,001
939,4	0,001
939,8	0,001
940,2	0,001
940,6	0,001
941,1	0,001
941,5	0,001
941,9	0,002
942,3	0,001
942,8	0,002
943,2	0,002
943,6	0,002
944	0,002
944,4	0,002
944,9	0,002
945,3	0,002
945,7	0,002
946,1	0,002
946,6	0,001
947	0,001
947,4	0,001
947,8	0,001
948,2	0,001
948,7	0,001
949,1	0,001
949,5	0,002
949,9	0,002
950,3	0,002
950,8	0,002
951,2	0,002
951,6	0,002
952	0,002
952,5	0,002
952,9	0,002
953,3	0,002
953,7	0,002
954,1	0,003
954,6	0,003
955	0,003
955,4	0,002
955,8	0,003
956,2	0,003
956,7	0,002
957,1	0,002
957,5	0,001
957,9	0,002
958,3	0,002
958,8	0,001
959,2	0,001
959,6	0,001
960	0,001
960,5	0,001
960,9	0,001
961,3	0,002
961,7	0,002
962,1	0,002
962,6	0,003
963	0,003
963,4	0,003
963,8	0,003
964,2	0,003
964,7	0,003
965,1	0,003
965,5	0,002
965,9	0,003
966,3	0,003
966,8	0,003
967,2	0,003
967,6	0,003
968	0,003
968,4	0,003
968,9	0,003
969,3	0,003
969,7	0,003
970,1	0,003
970,5	0,003
971	0,003
971,4	0,003
971,8	0,003
972,2	0,002
972,6	0,002
973,1	0,002
973,5	0,001
973,9	0,001
974,3	0,002
974,7	0,002
975,2	0,002
975,6	0,002
976	0,001
976,4	0,002
976,8	0,002
977,3	0,001
977,7	0,001
978,1	0,001
978,5	0,001
978,9	0,001
979,4	0,001
979,8	0,001
980,2	0,001
980,6	0,002
981	0,002
981,5	0,002
981,9	0,002
982,3	0,002
982,7	0,002
983,1	0,002
983,6	0,002
984	0,002
984,4	0,003
984,8	0,003
985,2	0,003
985,6	0,003
986,1	0,003
986,5	0,004
986,9	0,004
987,3	0,004
987,7	0,004
988,2	0,004
988,6	0,004
989	0,005
989,4	0,004
989,8	0,004
990,3	0,004
990,7	0,004
991,1	0,003
991,5	0,003
991,9	0,004
992,3	0,003
992,8	0,003
993,2	0,003
993,6	0,003
994	0,003
994,4	0,004
994,9	0,003
995,3	0,003
995,7	0,003
996,1	0,003
996,5	0,003
996,9	0,003
997,4	0,003
997,8	0,003
998,2	0,003
998,6	0,003
999	0,003
999,5	0,002
999,9	0,002
1000,3	0,002
1000,7	0,002
1001,1	0,002
1001,5	0,002
1002	0,003
1002,4	0,004
1002,8	0,004
1003,2	0,004
1003,6	0,004
1004	0,004
1004,5	0,004
1004,9	0,004
1005,3	0,003
1005,7	0,003
1006,1	0,003
1006,6	0,003
1007	0,003
1007,4	0,002
1007,8	0,002
1008,2	0,002
1008,6	0,002
1009,1	0,002
1009,5	0,001
1009,9	0,002
1010,3	0,002
1010,7	0,002
1011,1	0,003
1011,6	0,003
1012	0,003
1012,4	0,004
1012,8	0,004
1013,2	0,004
1013,6	0,004
1014,1	0,003
1014,5	0,004
1014,9	0,004
1015,3	0,004
1015,7	0,004
1016,1	0,004
1016,6	0,004
1017	0,005
1017,4	0,005
1017,8	0,004
1018,2	0,004
1018,6	0,004
1019,1	0,004
1019,5	0,004
1019,9	0,004
1020,3	0,003
1020,7	0,004
1021,1	0,004
1021,6	0,004
1022	0,004
1022,4	0,004
1022,8	0,004
1023,2	0,005
1023,6	0,005
1024,1	0,005
1024,5	0,005
1024,9	0,006
1025,3	0,005
1025,7	0,005
1026,1	0,005
1026,6	0,004
1027	0,004
1027,4	0,004
1027,8	0,004
1028,2	0,004
1028,6	0,004
1029	0,005
1029,5	0,005
1029,9	0,005
1030,3	0,005
1030,7	0,006
1031,1	0,006
1031,5	0,006
1032	0,006
1032,4	0,006
1032,8	0,006
1033,2	0,006
1033,6	0,005
1034	0,004
1034,4	0,003
1034,9	0,003
1035,3	0,003
1035,7	0,003
1036,1	0,002
1036,5	0,003
1036,9	0,003
1037,4	0,003
1037,8	0,003
1038,2	0,004
1038,6	0,004
1039	0,004
1039,4	0,004
1039,8	0,004
1040,3	0,005
1040,7	0,005
1041,1	0,004
1041,5	0,004
1041,9	0,004
1042,3	0,004
1042,7	0,004
1043,2	0,004
1043,6	0,004
1044	0,004
1044,4	0,004
1044,8	0,004
1045,2	0,004
1045,6	0,004
1046,1	0,004
1046,5	0,004
1046,9	0,004
1047,3	0,004
1047,7	0,003
1048,1	0,003
1048,5	0,002
1049	0,002
1049,4	0,002
1049,8	0,002
1050,2	0,002
1050,6	0,003
1051	0,004
1051,4	0,005
1051,9	0,004
1052,3	0,005
1052,7	0,005
1053,1	0,005
1053,5	0,005
1053,9	0,005
1054,3	0,005
1054,8	0,005
1055,2	0,005
1055,6	0,005
1056	0,005
1056,4	0,005
1056,8	0,005
1057,2	0,005
1057,6	0,005
1058,1	0,005
1058,5	0,005
1058,9	0,005
1059,3	0,006
1059,7	0,006
1060,1	0,007
1060,5	0,006
1061	0,006
1061,4	0,005
1061,8	0,005
1062,2	0,004
1062,6	0,005
1063	0,005
1063,4	0,005
1063,8	0,005
1064,3	0,006
1064,7	0,005
1065,1	0,005
1065,5	0,005
1065,9	0,004
1066,3	0,003
1066,7	0,003
1067,1	0,003
1067,6	0,004
1068	0,003
1068,4	0,004
1068,8	0,004
1069,2	0,005
1069,6	0,005
1070	0,006
1070,4	0,006
1070,9	0,007
1071,3	0,006
1071,7	0,006
1072,1	0,005
1072,5	0,004
1072,9	0,003
1073,3	0,002
1073,7	0,003
1074,2	0,004
1074,6	0,003
1075	0,004
1075,4	0,004
1075,8	0,005
1076,2	0,005
1076,6	0,005
1077	0,005
1077,5	0,006
1077,9	0,006
1078,3	0,006
1078,7	0,007
1079,1	0,008
1079,5	0,007
1079,9	0,007
1080,3	0,007
1080,7	0,008
1081,2	0,006
1081,6	0,006
1082	0,005
1082,4	0,007
1082,8	0,006
1083,2	0,008
1083,6	0,007
1084	0,008
1084,5	0,007
1084,9	0,008
1085,3	0,008
1085,7	0,009
1086,1	0,009
1086,5	0,01
1086,9	0,011
1087,3	0,014
1087,7	0,013
1088,2	0,013
1088,6	0,011
1089	0,01
1089,4	0,01
1089,8	0,009
1090,2	0,007
1090,6	0,008
1091	0,006
1091,4	0,005
1091,9	0,005
1092,3	0,006
1092,7	0,007
1093,1	0,008
1093,5	0,006
1093,9	0,011
1094,3	0,011
1094,7	0,012
1095,1	0,019
1095,5	0,017
1096	0,022
1096,4	0,021
1096,8	0,02
1097,2	0,028
1097,6	0,03
1098	0,018
1098,4	0,023
1098,8	0,019
1099,2	0,027
1099,6	0,029
1100,1	0,027
1100,5	0,029
1100,9	0,036
1101,3	0,036
1101,7	0,041
1102,1	0,041
1102,5	0,037
1102,9	0,026
1103,3	0,014
1103,7	0,017
1104,2	0,017
1104,6	0,023
1105	0,023
1105,4	0,024
1105,8	0,037
1106,2	0,061
1106,6	0,059
1107	0,074
1107,4	0,056
1107,8	0,05
1108,3	-0
