Data from Absorbance_198.txt Node
Date: Fri Nov 13 20:59:11 MSK 2020
User: vat
Spectrometer: MAYP114033
Trigger mode: 0
Integration Time (sec): 8,000000E-3
Scans to average: 10
Electric dark correction enabled: true
Nonlinearity correction enabled: false
Boxcar width: 3
XAxis mode: Wavelengths
Number of Pixels in Spectrum: 2068
>>>>>Begin Spectral Data<<<<<
199,4	-0,344
199,9	0,56
200,4	0,184
200,8	0,082
201,3	0,048
201,8	0,043
202,2	0,042
202,7	0,042
203,2	0,027
203,6	0,026
204,1	0,038
204,6	0,037
205	0,035
205,5	0,045
206	0,029
206,4	0,042
206,9	0,039
207,4	0,046
207,8	0,054
208,3	0,057
208,8	0,062
209,2	0,069
209,7	0,064
210,2	0,069
210,6	0,062
211,1	0,049
211,5	0,058
212	0,045
212,5	0,049
212,9	0,043
213,4	0,054
213,9	0,057
214,3	0,072
214,8	0,064
215,3	0,066
215,7	0,068
216,2	0,068
216,7	0,058
217,1	0,048
217,6	0,063
218,1	0,07
218,5	0,077
219	0,093
219,5	0,097
219,9	0,121
220,4	0,113
220,9	0,095
221,3	0,094
221,8	0,097
222,3	0,082
222,7	0,076
223,2	0,07
223,6	0,106
224,1	0,119
224,6	0,106
225	0,093
225,5	0,098
226	0,106
226,4	0,082
226,9	0,063
227,4	0,059
227,8	0,069
228,3	0,079
228,8	0,078
229,2	0,073
229,7	0,076
230,2	0,083
230,6	0,086
231,1	0,097
231,5	0,104
232	0,115
232,5	0,129
232,9	0,127
233,4	0,132
233,9	0,125
234,3	0,109
234,8	0,106
235,3	0,101
235,7	0,093
236,2	0,101
236,7	0,094
237,1	0,093
237,6	0,096
238,1	0,098
238,5	0,095
239	0,098
239,4	0,103
239,9	0,105
240,4	0,11
240,8	0,12
241,3	0,131
241,8	0,128
242,2	0,142
242,7	0,149
243,2	0,156
243,6	0,16
244,1	0,174
244,6	0,179
245	0,191
245,5	0,195
245,9	0,202
246,4	0,206
246,9	0,22
247,3	0,227
247,8	0,231
248,3	0,241
248,7	0,244
249,2	0,251
249,7	0,255
250,1	0,253
250,6	0,255
251	0,259
251,5	0,256
252	0,262
252,4	0,263
252,9	0,267
253,4	0,272
253,8	0,276
254,3	0,28
254,8	0,286
255,2	0,292
255,7	0,296
256,1	0,304
256,6	0,311
257,1	0,318
257,5	0,325
258	0,333
258,5	0,342
258,9	0,351
259,4	0,359
259,9	0,369
260,3	0,38
260,8	0,389
261,2	0,4
261,7	0,41
262,2	0,421
262,6	0,431
263,1	0,442
263,6	0,453
264	0,465
264,5	0,476
264,9	0,488
265,4	0,499
265,9	0,512
266,3	0,523
266,8	0,534
267,3	0,547
267,7	0,559
268,2	0,57
268,7	0,583
269,1	0,595
269,6	0,607
270	0,618
270,5	0,629
271	0,639
271,4	0,65
271,9	0,66
272,4	0,671
272,8	0,683
273,3	0,695
273,7	0,704
274,2	0,716
274,7	0,726
275,1	0,736
275,6	0,746
276,1	0,753
276,5	0,764
277	0,773
277,4	0,78
277,9	0,786
278,4	0,794
278,8	0,798
279,3	0,804
279,8	0,807
280,2	0,81
280,7	0,814
281,1	0,818
281,6	0,819
282,1	0,821
282,5	0,82
283	0,821
283,4	0,82
283,9	0,818
284,4	0,815
284,8	0,813
285,3	0,808
285,8	0,804
286,2	0,798
286,7	0,793
287,1	0,787
287,6	0,78
288,1	0,77
288,5	0,762
289	0,753
289,5	0,742
289,9	0,731
290,4	0,719
290,8	0,707
291,3	0,695
291,8	0,682
292,2	0,668
292,7	0,653
293,1	0,638
293,6	0,624
294,1	0,609
294,5	0,593
295	0,577
295,5	0,56
295,9	0,543
296,4	0,527
296,8	0,51
297,3	0,494
297,8	0,477
298,2	0,461
298,7	0,445
299,1	0,429
299,6	0,412
300,1	0,397
300,5	0,38
301	0,365
301,5	0,35
301,9	0,336
302,4	0,321
302,8	0,307
303,3	0,293
303,8	0,28
304,2	0,267
304,7	0,254
305,1	0,243
305,6	0,231
306,1	0,22
306,5	0,21
307	0,2
307,4	0,19
307,9	0,181
308,4	0,172
308,8	0,164
309,3	0,156
309,8	0,148
310,2	0,141
310,7	0,134
311,1	0,128
311,6	0,122
312,1	0,116
312,5	0,111
313	0,105
313,4	0,1
313,9	0,095
314,4	0,091
314,8	0,087
315,3	0,083
315,7	0,08
316,2	0,077
316,7	0,074
317,1	0,071
317,6	0,069
318	0,066
318,5	0,063
319	0,061
319,4	0,059
319,9	0,057
320,3	0,055
320,8	0,053
321,3	0,051
321,7	0,051
322,2	0,049
322,6	0,048
323,1	0,047
323,6	0,046
324	0,046
324,5	0,045
324,9	0,044
325,4	0,043
325,9	0,042
326,3	0,042
326,8	0,041
327,2	0,04
327,7	0,04
328,2	0,039
328,6	0,038
329,1	0,037
329,5	0,036
330	0,036
330,5	0,035
330,9	0,035
331,4	0,034
331,8	0,034
332,3	0,033
332,8	0,034
333,2	0,033
333,7	0,033
334,1	0,033
334,6	0,032
335,1	0,032
335,5	0,032
336	0,031
336,4	0,031
336,9	0,03
337,4	0,03
337,8	0,03
338,3	0,029
338,7	0,029
339,2	0,028
339,7	0,028
340,1	0,028
340,6	0,028
341	0,028
341,5	0,028
342	0,028
342,4	0,027
342,9	0,027
343,3	0,027
343,8	0,027
344,2	0,027
344,7	0,027
345,2	0,026
345,6	0,027
346,1	0,027
346,5	0,027
347	0,026
347,5	0,026
347,9	0,026
348,4	0,026
348,8	0,026
349,3	0,026
349,8	0,025
350,2	0,025
350,7	0,025
351,1	0,025
351,6	0,025
352	0,025
352,5	0,024
353	0,024
353,4	0,024
353,9	0,024
354,3	0,024
354,8	0,023
355,3	0,023
355,7	0,022
356,2	0,023
356,6	0,023
357,1	0,022
357,5	0,022
358	0,022
358,5	0,022
358,9	0,022
359,4	0,022
359,8	0,022
360,3	0,022
360,8	0,022
361,2	0,022
361,7	0,022
362,1	0,021
362,6	0,021
363	0,021
363,5	0,022
364	0,022
364,4	0,021
364,9	0,021
365,3	0,021
365,8	0,021
366,3	0,02
366,7	0,02
367,2	0,021
367,6	0,02
368,1	0,02
368,5	0,02
369	0,021
369,5	0,02
369,9	0,02
370,4	0,019
370,8	0,019
371,3	0,019
371,7	0,018
372,2	0,018
372,7	0,018
373,1	0,018
373,6	0,018
374	0,017
374,5	0,017
374,9	0,018
375,4	0,017
375,9	0,017
376,3	0,017
376,8	0,017
377,2	0,017
377,7	0,017
378,2	0,017
378,6	0,017
379,1	0,017
379,5	0,016
380	0,016
380,4	0,016
380,9	0,016
381,4	0,016
381,8	0,016
382,3	0,015
382,7	0,016
383,2	0,016
383,6	0,016
384,1	0,016
384,6	0,016
385	0,016
385,5	0,016
385,9	0,016
386,4	0,015
386,8	0,015
387,3	0,015
387,7	0,015
388,2	0,015
388,7	0,014
389,1	0,014
389,6	0,014
390	0,014
390,5	0,014
390,9	0,014
391,4	0,014
391,9	0,014
392,3	0,014
392,8	0,014
393,2	0,015
393,7	0,014
394,1	0,014
394,6	0,014
395,1	0,014
395,5	0,014
396	0,014
396,4	0,013
396,9	0,014
397,3	0,014
397,8	0,014
398,2	0,013
398,7	0,013
399,2	0,014
399,6	0,014
400,1	0,013
400,5	0,013
401	0,013
401,4	0,013
401,9	0,014
402,4	0,014
402,8	0,013
403,3	0,013
403,7	0,013
404,2	0,013
404,6	0,013
405,1	0,012
405,5	0,013
406	0,013
406,5	0,012
406,9	0,012
407,4	0,013
407,8	0,013
408,3	0,013
408,7	0,012
409,2	0,012
409,6	0,013
410,1	0,013
410,6	0,013
411	0,013
411,5	0,013
411,9	0,013
412,4	0,012
412,8	0,012
413,3	0,012
413,7	0,012
414,2	0,012
414,7	0,012
415,1	0,012
415,6	0,012
416	0,012
416,5	0,012
416,9	0,012
417,4	0,012
417,8	0,012
418,3	0,013
418,8	0,013
419,2	0,013
419,7	0,012
420,1	0,012
420,6	0,012
421	0,012
421,5	0,012
421,9	0,012
422,4	0,012
422,8	0,013
423,3	0,013
423,8	0,013
424,2	0,013
424,7	0,012
425,1	0,012
425,6	0,012
426	0,011
426,5	0,012
426,9	0,012
427,4	0,011
427,9	0,011
428,3	0,012
428,8	0,011
429,2	0,011
429,7	0,011
430,1	0,011
430,6	0,011
431	0,011
431,5	0,01
431,9	0,01
432,4	0,011
432,8	0,011
433,3	0,011
433,8	0,011
434,2	0,01
434,7	0,01
435,1	0,01
435,6	0,01
436	0,01
436,5	0,011
436,9	0,011
437,4	0,011
437,8	0,012
438,3	0,011
438,8	0,011
439,2	0,011
439,7	0,01
440,1	0,01
440,6	0,01
441	0,009
441,5	0,01
441,9	0,01
442,4	0,01
442,8	0,01
443,3	0,01
443,7	0,01
444,2	0,011
444,7	0,01
445,1	0,011
445,6	0,011
446	0,011
446,5	0,011
446,9	0,011
447,4	0,011
447,8	0,011
448,3	0,011
448,7	0,01
449,2	0,01
449,6	0,01
450,1	0,01
450,6	0,01
451	0,01
451,5	0,011
451,9	0,011
452,4	0,011
452,8	0,01
453,3	0,011
453,7	0,01
454,2	0,01
454,6	0,01
455,1	0,009
455,5	0,009
456	0,01
456,4	0,01
456,9	0,01
457,3	0,01
457,8	0,01
458,3	0,01
458,7	0,009
459,2	0,009
459,6	0,009
460,1	0,009
460,5	0,009
461	0,01
461,4	0,01
461,9	0,01
462,3	0,01
462,8	0,01
463,2	0,01
463,7	0,01
464,1	0,01
464,6	0,01
465	0,01
465,5	0,01
466	0,009
466,4	0,009
466,9	0,009
467,3	0,01
467,8	0,009
468,2	0,01
468,7	0,01
469,1	0,01
469,6	0,01
470	0,01
470,5	0,009
470,9	0,009
471,4	0,009
471,8	0,009
472,3	0,009
472,7	0,01
473,2	0,01
473,6	0,01
474,1	0,01
474,5	0,01
475	0,01
475,4	0,01
475,9	0,01
476,4	0,009
476,8	0,01
477,3	0,01
477,7	0,01
478,2	0,009
478,6	0,01
479,1	0,01
479,5	0,01
480	0,01
480,4	0,01
480,9	0,01
481,3	0,01
481,8	0,01
482,2	0,011
482,7	0,01
483,1	0,011
483,6	0,01
484	0,01
484,5	0,01
484,9	0,01
485,4	0,01
485,8	0,01
486,3	0,009
486,7	0,009
487,2	0,009
487,6	0,009
488,1	0,009
488,5	0,009
489	0,01
489,4	0,01
489,9	0,009
490,4	0,009
490,8	0,009
491,3	0,009
491,7	0,009
492,2	0,009
492,6	0,008
493,1	0,009
493,5	0,009
494	0,009
494,4	0,009
494,9	0,009
495,3	0,009
495,8	0,01
496,2	0,009
496,7	0,01
497,1	0,01
497,6	0,01
498	0,009
498,5	0,01
498,9	0,009
499,4	0,009
499,8	0,009
500,3	0,009
500,7	0,009
501,2	0,009
501,6	0,009
502,1	0,009
502,5	0,01
503	0,01
503,4	0,01
503,9	0,01
504,3	0,01
504,8	0,01
505,2	0,009
505,7	0,008
506,1	0,009
506,6	0,008
507	0,008
507,5	0,009
507,9	0,009
508,4	0,009
508,8	0,009
509,3	0,009
509,7	0,01
510,2	0,009
510,6	0,009
511,1	0,009
511,5	0,008
512	0,009
512,4	0,009
512,9	0,009
513,3	0,009
513,8	0,009
514,2	0,009
514,7	0,008
515,1	0,008
515,6	0,008
516	0,008
516,5	0,008
516,9	0,008
517,4	0,009
517,8	0,01
518,3	0,009
518,7	0,009
519,2	0,01
519,6	0,01
520,1	0,01
520,5	0,01
521	0,009
521,4	0,009
521,9	0,009
522,3	0,009
522,8	0,009
523,2	0,009
523,7	0,009
524,1	0,009
524,6	0,009
525	0,009
525,5	0,009
525,9	0,009
526,4	0,008
526,8	0,008
527,3	0,008
527,7	0,008
528,2	0,009
528,6	0,009
529,1	0,01
529,5	0,011
530	0,011
530,4	0,011
530,9	0,01
531,3	0,01
531,8	0,01
532,2	0,009
532,6	0,009
533,1	0,008
533,5	0,008
534	0,009
534,4	0,009
534,9	0,009
535,3	0,009
535,8	0,009
536,2	0,009
536,7	0,009
537,1	0,009
537,6	0,008
538	0,008
538,5	0,008
538,9	0,009
539,4	0,008
539,8	0,009
540,3	0,008
540,7	0,009
541,2	0,009
541,6	0,009
542,1	0,008
542,5	0,008
543	0,008
543,4	0,008
543,9	0,008
544,3	0,008
544,8	0,008
545,2	0,008
545,7	0,008
546,1	0,008
546,5	0,009
547	0,009
547,4	0,008
547,9	0,009
548,3	0,009
548,8	0,008
549,2	0,009
549,7	0,009
550,1	0,009
550,6	0,009
551	0,009
551,5	0,009
551,9	0,009
552,4	0,009
552,8	0,009
553,3	0,009
553,7	0,009
554,2	0,009
554,6	0,009
555,1	0,009
555,5	0,009
555,9	0,008
556,4	0,008
556,8	0,008
557,3	0,008
557,7	0,008
558,2	0,008
558,6	0,007
559,1	0,008
559,5	0,008
560	0,009
560,4	0,008
560,9	0,008
561,3	0,008
561,8	0,008
562,2	0,009
562,7	0,008
563,1	0,008
563,6	0,009
564	0,008
564,4	0,008
564,9	0,008
565,3	0,008
565,8	0,007
566,2	0,008
566,7	0,008
567,1	0,008
567,6	0,008
568	0,008
568,5	0,008
568,9	0,008
569,4	0,008
569,8	0,008
570,3	0,008
570,7	0,008
571,1	0,007
571,6	0,008
572	0,008
572,5	0,008
572,9	0,008
573,4	0,008
573,8	0,008
574,3	0,008
574,7	0,008
575,2	0,008
575,6	0,008
576,1	0,008
576,5	0,008
576,9	0,008
577,4	0,008
577,8	0,008
578,3	0,008
578,7	0,008
579,2	0,008
579,6	0,008
580,1	0,008
580,5	0,008
581	0,008
581,4	0,008
581,9	0,008
582,3	0,008
582,7	0,007
583,2	0,007
583,6	0,007
584,1	0,007
584,5	0,007
585	0,007
585,4	0,007
585,9	0,007
586,3	0,007
586,8	0,008
587,2	0,008
587,6	0,008
588,1	0,008
588,5	0,007
589	0,008
589,4	0,008
589,9	0,008
590,3	0,008
590,8	0,008
591,2	0,008
591,7	0,007
592,1	0,007
592,5	0,007
593	0,007
593,4	0,007
593,9	0,008
594,3	0,008
594,8	0,008
595,2	0,008
595,7	0,007
596,1	0,007
596,6	0,007
597	0,007
597,4	0,007
597,9	0,007
598,3	0,007
598,8	0,008
599,2	0,008
599,7	0,008
600,1	0,008
600,6	0,008
601	0,007
601,4	0,007
601,9	0,007
602,3	0,007
602,8	0,007
603,2	0,007
603,7	0,007
604,1	0,007
604,6	0,008
605	0,008
605,4	0,008
605,9	0,008
606,3	0,008
606,8	0,008
607,2	0,008
607,7	0,008
608,1	0,008
608,6	0,008
609	0,009
609,4	0,009
609,9	0,009
610,3	0,009
610,8	0,008
611,2	0,009
611,7	0,009
612,1	0,008
612,6	0,009
613	0,008
613,4	0,008
613,9	0,009
614,3	0,008
614,8	0,008
615,2	0,008
615,7	0,008
616,1	0,008
616,6	0,008
617	0,008
617,4	0,008
617,9	0,008
618,3	0,008
618,8	0,009
619,2	0,009
619,7	0,008
620,1	0,008
620,5	0,008
621	0,008
621,4	0,007
621,9	0,007
622,3	0,007
622,8	0,007
623,2	0,007
623,6	0,007
624,1	0,007
624,5	0,008
625	0,008
625,4	0,008
625,9	0,008
626,3	0,008
626,8	0,008
627,2	0,008
627,6	0,008
628,1	0,008
628,5	0,008
629	0,008
629,4	0,008
629,9	0,008
630,3	0,008
630,7	0,008
631,2	0,008
631,6	0,008
632,1	0,008
632,5	0,008
633	0,008
633,4	0,008
633,8	0,007
634,3	0,007
634,7	0,008
635,2	0,008
635,6	0,008
636,1	0,008
636,5	0,008
636,9	0,008
637,4	0,008
637,8	0,008
638,3	0,008
638,7	0,008
639,2	0,009
639,6	0,009
640	0,009
640,5	0,009
640,9	0,008
641,4	0,009
641,8	0,008
642,2	0,008
642,7	0,008
643,1	0,008
643,6	0,008
644	0,008
644,5	0,008
644,9	0,008
645,3	0,008
645,8	0,008
646,2	0,007
646,7	0,007
647,1	0,008
647,6	0,007
648	0,008
648,4	0,008
648,9	0,008
649,3	0,009
649,8	0,009
650,2	0,008
650,6	0,009
651,1	0,008
651,5	0,008
652	0,008
652,4	0,009
652,9	0,009
653,3	0,009
653,7	0,01
654,2	0,006
654,6	0,004
655,1	0,003
655,5	0,003
655,9	0,003
656,4	0,003
656,8	0,003
657,3	0,004
657,7	0,005
658,2	0,008
658,6	0,009
659	0,009
659,5	0,009
659,9	0,009
660,4	0,009
660,8	0,009
661,2	0,008
661,7	0,008
662,1	0,009
662,6	0,009
663	0,008
663,4	0,008
663,9	0,008
664,3	0,007
664,8	0,008
665,2	0,008
665,6	0,008
666,1	0,008
666,5	0,008
667	0,008
667,4	0,009
667,9	0,009
668,3	0,009
668,7	0,009
669,2	0,009
669,6	0,009
670,1	0,009
670,5	0,009
670,9	0,009
671,4	0,009
671,8	0,009
672,3	0,008
672,7	0,008
673,1	0,008
673,6	0,008
674	0,009
674,5	0,009
674,9	0,009
675,3	0,009
675,8	0,009
676,2	0,01
676,7	0,01
677,1	0,01
677,5	0,01
678	0,01
678,4	0,01
678,9	0,01
679,3	0,009
679,7	0,01
680,2	0,01
680,6	0,01
681,1	0,01
681,5	0,009
681,9	0,01
682,4	0,01
682,8	0,009
683,3	0,009
683,7	0,01
684,1	0,01
684,6	0,01
685	0,01
685,5	0,01
685,9	0,009
686,3	0,009
686,8	0,009
687,2	0,009
687,7	0,009
688,1	0,009
688,5	0,01
689	0,01
689,4	0,01
689,9	0,01
690,3	0,01
690,7	0,01
691,2	0,01
691,6	0,01
692	0,01
692,5	0,009
692,9	0,009
693,4	0,009
693,8	0,01
694,2	0,009
694,7	0,009
695,1	0,01
695,6	0,009
696	0,009
696,4	0,009
696,9	0,009
697,3	0,009
697,8	0,008
698,2	0,008
698,6	0,008
699,1	0,008
699,5	0,008
699,9	0,008
700,4	0,008
700,8	0,008
701,3	0,008
701,7	0,008
702,1	0,008
702,6	0,008
703	0,009
703,5	0,009
703,9	0,009
704,3	0,009
704,8	0,009
705,2	0,009
705,6	0,009
706,1	0,009
706,5	0,009
707	0,01
707,4	0,01
707,8	0,01
708,3	0,01
708,7	0,01
709,2	0,01
709,6	0,01
710	0,01
710,5	0,01
710,9	0,01
711,3	0,01
711,8	0,01
712,2	0,01
712,7	0,01
713,1	0,01
713,5	0,01
714	0,01
714,4	0,01
714,8	0,01
715,3	0,01
715,7	0,01
716,2	0,01
716,6	0,01
717	0,01
717,5	0,01
717,9	0,01
718,3	0,01
718,8	0,009
719,2	0,009
719,7	0,009
720,1	0,009
720,5	0,01
721	0,01
721,4	0,01
721,8	0,01
722,3	0,01
722,7	0,01
723,2	0,01
723,6	0,01
724	0,01
724,5	0,01
724,9	0,01
725,3	0,011
725,8	0,011
726,2	0,011
726,7	0,011
727,1	0,01
727,5	0,01
728	0,01
728,4	0,01
728,8	0,01
729,3	0,01
729,7	0,01
730,1	0,01
730,6	0,01
731	0,01
731,5	0,01
731,9	0,01
732,3	0,01
732,8	0,01
733,2	0,01
733,6	0,01
734,1	0,01
734,5	0,01
734,9	0,01
735,4	0,011
735,8	0,011
736,3	0,011
736,7	0,011
737,1	0,011
737,6	0,011
738	0,011
738,4	0,01
738,9	0,01
739,3	0,01
739,7	0,011
740,2	0,01
740,6	0,01
741,1	0,01
741,5	0,01
741,9	0,01
742,4	0,01
742,8	0,01
743,2	0,01
743,7	0,01
744,1	0,01
744,5	0,011
745	0,011
745,4	0,011
745,8	0,011
746,3	0,01
746,7	0,011
747,2	0,011
747,6	0,011
748	0,011
748,5	0,01
748,9	0,01
749,3	0,01
749,8	0,01
750,2	0,01
750,6	0,01
751,1	0,01
751,5	0,01
751,9	0,01
752,4	0,01
752,8	0,01
753,3	0,009
753,7	0,01
754,1	0,01
754,6	0,01
755	0,01
755,4	0,01
755,9	0,011
756,3	0,011
756,7	0,011
757,2	0,011
757,6	0,011
758	0,011
758,5	0,011
758,9	0,011
759,3	0,011
759,8	0,011
760,2	0,011
760,6	0,011
761,1	0,011
761,5	0,012
761,9	0,012
762,4	0,012
762,8	0,012
763,3	0,012
763,7	0,012
764,1	0,012
764,6	0,011
765	0,011
765,4	0,01
765,9	0,01
766,3	0,009
766,7	0,009
767,2	0,009
767,6	0,009
768	0,009
768,5	0,009
768,9	0,01
769,3	0,01
769,8	0,01
770,2	0,011
770,6	0,011
771,1	0,011
771,5	0,011
771,9	0,011
772,4	0,011
772,8	0,012
773,2	0,012
773,7	0,012
774,1	0,012
774,5	0,013
775	0,013
775,4	0,012
775,8	0,012
776,3	0,012
776,7	0,012
777,1	0,012
777,6	0,011
778	0,011
778,4	0,011
778,9	0,011
779,3	0,011
779,7	0,011
780,2	0,011
780,6	0,011
781	0,012
781,5	0,012
781,9	0,012
782,3	0,013
782,8	0,013
783,2	0,013
783,6	0,013
784,1	0,013
784,5	0,013
784,9	0,012
785,4	0,012
785,8	0,012
786,2	0,012
786,7	0,011
787,1	0,011
787,5	0,01
788	0,011
788,4	0,01
788,8	0,01
789,3	0,01
789,7	0,011
790,1	0,011
790,6	0,011
791	0,011
791,4	0,011
791,9	0,012
792,3	0,012
792,7	0,011
793,2	0,012
793,6	0,012
794	0,012
794,5	0,012
794,9	0,012
795,3	0,011
795,8	0,011
796,2	0,011
796,6	0,011
797,1	0,011
797,5	0,012
797,9	0,011
798,4	0,012
798,8	0,012
799,2	0,012
799,7	0,012
800,1	0,012
800,5	0,012
801	0,012
801,4	0,012
801,8	0,012
802,2	0,012
802,7	0,012
803,1	0,012
803,5	0,012
804	0,012
804,4	0,012
804,8	0,012
805,3	0,012
805,7	0,012
806,1	0,011
806,6	0,011
807	0,011
807,4	0,011
807,9	0,011
808,3	0,011
808,7	0,011
809,2	0,012
809,6	0,012
810	0,011
810,4	0,011
810,9	0,011
811,3	0,011
811,7	0,011
812,2	0,011
812,6	0,011
813	0,011
813,5	0,011
813,9	0,012
814,3	0,011
814,8	0,011
815,2	0,011
815,6	0,011
816,1	0,011
816,5	0,011
816,9	0,011
817,3	0,011
817,8	0,011
818,2	0,011
818,6	0,011
819,1	0,011
819,5	0,011
819,9	0,012
820,4	0,012
820,8	0,012
821,2	0,012
821,7	0,013
822,1	0,013
822,5	0,012
822,9	0,012
823,4	0,012
823,8	0,012
824,2	0,011
824,7	0,011
825,1	0,011
825,5	0,01
826	0,011
826,4	0,011
826,8	0,011
827,3	0,011
827,7	0,012
828,1	0,012
828,5	0,012
829	0,012
829,4	0,012
829,8	0,012
830,3	0,012
830,7	0,012
831,1	0,013
831,6	0,013
832	0,012
832,4	0,012
832,8	0,013
833,3	0,013
833,7	0,013
834,1	0,013
834,6	0,013
835	0,013
835,4	0,013
835,8	0,012
836,3	0,012
836,7	0,012
837,1	0,013
837,6	0,013
838	0,013
838,4	0,013
838,9	0,013
839,3	0,013
839,7	0,013
840,1	0,013
840,6	0,013
841	0,012
841,4	0,012
841,9	0,012
842,3	0,012
842,7	0,012
843,1	0,012
843,6	0,012
844	0,012
844,4	0,011
844,9	0,011
845,3	0,011
845,7	0,011
846,2	0,011
846,6	0,012
847	0,012
847,4	0,013
847,9	0,013
848,3	0,013
848,7	0,013
849,2	0,013
849,6	0,013
850	0,013
850,4	0,013
850,9	0,013
851,3	0,013
851,7	0,014
852,2	0,014
852,6	0,014
853	0,013
853,4	0,013
853,9	0,013
854,3	0,013
854,7	0,012
855,2	0,012
855,6	0,012
856	0,012
856,4	0,012
856,9	0,012
857,3	0,012
857,7	0,012
858,2	0,012
858,6	0,012
859	0,012
859,4	0,012
859,9	0,013
860,3	0,012
860,7	0,012
861,1	0,012
861,6	0,012
862	0,013
862,4	0,013
862,9	0,013
863,3	0,013
863,7	0,013
864,1	0,013
864,6	0,013
865	0,013
865,4	0,013
865,9	0,013
866,3	0,013
866,7	0,013
867,1	0,013
867,6	0,012
868	0,012
868,4	0,012
868,8	0,012
869,3	0,012
869,7	0,012
870,1	0,012
870,6	0,012
871	0,012
871,4	0,012
871,8	0,012
872,3	0,011
872,7	0,011
873,1	0,011
873,5	0,011
874	0,012
874,4	0,012
874,8	0,012
875,3	0,012
875,7	0,012
876,1	0,012
876,5	0,013
877	0,012
877,4	0,013
877,8	0,013
878,2	0,013
878,7	0,013
879,1	0,013
879,5	0,013
879,9	0,013
880,4	0,013
880,8	0,014
881,2	0,014
881,7	0,014
882,1	0,014
882,5	0,014
882,9	0,014
883,4	0,013
883,8	0,013
884,2	0,013
884,6	0,013
885,1	0,013
885,5	0,013
885,9	0,013
886,3	0,013
886,8	0,012
887,2	0,012
887,6	0,012
888	0,012
888,5	0,012
888,9	0,013
889,3	0,013
889,8	0,013
890,2	0,013
890,6	0,013
891	0,012
891,5	0,012
891,9	0,012
892,3	0,012
892,7	0,012
893,2	0,013
893,6	0,013
894	0,014
894,4	0,014
894,9	0,014
895,3	0,014
895,7	0,014
896,1	0,014
896,6	0,014
897	0,014
897,4	0,014
897,8	0,013
898,3	0,014
898,7	0,013
899,1	0,013
899,5	0,013
900	0,013
900,4	0,013
900,8	0,013
901,2	0,013
901,7	0,013
902,1	0,012
902,5	0,012
902,9	0,011
903,4	0,011
903,8	0,011
904,2	0,011
904,6	0,01
905,1	0,011
905,5	0,011
905,9	0,012
906,3	0,013
906,8	0,013
907,2	0,013
907,6	0,013
908	0,013
908,5	0,013
908,9	0,014
909,3	0,014
909,7	0,014
910,2	0,014
910,6	0,014
911	0,014
911,4	0,014
911,9	0,014
912,3	0,013
912,7	0,014
913,1	0,014
913,6	0,014
914	0,014
914,4	0,014
914,8	0,014
915,3	0,014
915,7	0,014
916,1	0,014
916,5	0,014
916,9	0,014
917,4	0,015
917,8	0,015
918,2	0,015
918,6	0,015
919,1	0,014
919,5	0,014
919,9	0,014
920,3	0,014
920,8	0,013
921,2	0,013
921,6	0,013
922	0,013
922,5	0,013
922,9	0,014
923,3	0,013
923,7	0,013
924,2	0,013
924,6	0,013
925	0,013
925,4	0,014
925,8	0,014
926,3	0,014
926,7	0,014
927,1	0,015
927,5	0,015
928	0,014
928,4	0,014
928,8	0,014
929,2	0,014
929,7	0,013
930,1	0,013
930,5	0,013
930,9	0,014
931,3	0,014
931,8	0,013
932,2	0,013
932,6	0,013
933	0,013
933,5	0,013
933,9	0,013
934,3	0,012
934,7	0,012
935,2	0,012
935,6	0,012
936	0,012
936,4	0,012
936,8	0,012
937,3	0,013
937,7	0,012
938,1	0,013
938,5	0,012
939	0,012
939,4	0,012
939,8	0,012
940,2	0,012
940,6	0,013
941,1	0,013
941,5	0,014
941,9	0,015
942,3	0,015
942,8	0,015
943,2	0,014
943,6	0,015
944	0,014
944,4	0,014
944,9	0,014
945,3	0,014
945,7	0,014
946,1	0,014
946,6	0,014
947	0,014
947,4	0,014
947,8	0,014
948,2	0,014
948,7	0,014
949,1	0,014
949,5	0,014
949,9	0,014
950,3	0,014
950,8	0,014
951,2	0,014
951,6	0,015
952	0,015
952,5	0,015
952,9	0,015
953,3	0,016
953,7	0,017
954,1	0,017
954,6	0,017
955	0,016
955,4	0,017
955,8	0,016
956,2	0,016
956,7	0,015
957,1	0,015
957,5	0,015
957,9	0,015
958,3	0,015
958,8	0,014
959,2	0,014
959,6	0,015
960	0,014
960,5	0,015
960,9	0,016
961,3	0,016
961,7	0,016
962,1	0,016
962,6	0,016
963	0,016
963,4	0,015
963,8	0,014
964,2	0,014
964,7	0,014
965,1	0,014
965,5	0,014
965,9	0,014
966,3	0,015
966,8	0,015
967,2	0,016
967,6	0,016
968	0,017
968,4	0,017
968,9	0,017
969,3	0,017
969,7	0,017
970,1	0,017
970,5	0,016
971	0,016
971,4	0,016
971,8	0,016
972,2	0,016
972,6	0,016
973,1	0,017
973,5	0,017
973,9	0,016
974,3	0,017
974,7	0,016
975,2	0,016
975,6	0,016
976	0,016
976,4	0,016
976,8	0,016
977,3	0,016
977,7	0,016
978,1	0,016
978,5	0,016
978,9	0,016
979,4	0,016
979,8	0,016
980,2	0,016
980,6	0,016
981	0,017
981,5	0,017
981,9	0,016
982,3	0,016
982,7	0,016
983,1	0,016
983,6	0,016
984	0,016
984,4	0,016
984,8	0,016
985,2	0,016
985,6	0,015
986,1	0,016
986,5	0,016
986,9	0,017
987,3	0,017
987,7	0,017
988,2	0,016
988,6	0,016
989	0,016
989,4	0,015
989,8	0,015
990,3	0,015
990,7	0,015
991,1	0,016
991,5	0,016
991,9	0,016
992,3	0,016
992,8	0,016
993,2	0,016
993,6	0,015
994	0,015
994,4	0,015
994,9	0,015
995,3	0,015
995,7	0,015
996,1	0,015
996,5	0,015
996,9	0,015
997,4	0,015
997,8	0,015
998,2	0,015
998,6	0,014
999	0,014
999,5	0,013
999,9	0,013
1000,3	0,013
1000,7	0,013
1001,1	0,013
1001,5	0,013
1002	0,014
1002,4	0,014
1002,8	0,015
1003,2	0,015
1003,6	0,015
1004	0,015
1004,5	0,015
1004,9	0,015
1005,3	0,015
1005,7	0,015
1006,1	0,015
1006,6	0,015
1007	0,015
1007,4	0,015
1007,8	0,014
1008,2	0,014
1008,6	0,014
1009,1	0,013
1009,5	0,014
1009,9	0,013
1010,3	0,014
1010,7	0,014
1011,1	0,015
1011,6	0,014
1012	0,014
1012,4	0,014
1012,8	0,014
1013,2	0,014
1013,6	0,014
1014,1	0,014
1014,5	0,015
1014,9	0,015
1015,3	0,015
1015,7	0,015
1016,1	0,015
1016,6	0,015
1017	0,014
1017,4	0,014
1017,8	0,014
1018,2	0,013
1018,6	0,013
1019,1	0,013
1019,5	0,013
1019,9	0,013
1020,3	0,013
1020,7	0,013
1021,1	0,014
1021,6	0,014
1022	0,014
1022,4	0,014
1022,8	0,014
1023,2	0,014
1023,6	0,014
1024,1	0,014
1024,5	0,015
1024,9	0,015
1025,3	0,015
1025,7	0,015
1026,1	0,015
1026,6	0,014
1027	0,014
1027,4	0,013
1027,8	0,013
1028,2	0,013
1028,6	0,013
1029	0,014
1029,5	0,015
1029,9	0,014
1030,3	0,014
1030,7	0,014
1031,1	0,014
1031,5	0,014
1032	0,013
1032,4	0,013
1032,8	0,014
1033,2	0,015
1033,6	0,015
1034	0,015
1034,4	0,016
1034,9	0,016
1035,3	0,016
1035,7	0,016
1036,1	0,016
1036,5	0,016
1036,9	0,016
1037,4	0,016
1037,8	0,016
1038,2	0,017
1038,6	0,016
1039	0,017
1039,4	0,016
1039,8	0,017
1040,3	0,017
1040,7	0,017
1041,1	0,017
1041,5	0,018
1041,9	0,018
1042,3	0,017
1042,7	0,016
1043,2	0,016
1043,6	0,016
1044	0,016
1044,4	0,016
1044,8	0,015
1045,2	0,016
1045,6	0,016
1046,1	0,016
1046,5	0,016
1046,9	0,016
1047,3	0,016
1047,7	0,016
1048,1	0,015
1048,5	0,015
1049	0,015
1049,4	0,016
1049,8	0,016
1050,2	0,016
1050,6	0,016
1051	0,016
1051,4	0,016
1051,9	0,017
1052,3	0,017
1052,7	0,017
1053,1	0,017
1053,5	0,016
1053,9	0,017
1054,3	0,016
1054,8	0,015
1055,2	0,015
1055,6	0,014
1056	0,014
1056,4	0,014
1056,8	0,015
1057,2	0,015
1057,6	0,016
1058,1	0,017
1058,5	0,016
1058,9	0,016
1059,3	0,017
1059,7	0,017
1060,1	0,017
1060,5	0,017
1061	0,017
1061,4	0,017
1061,8	0,018
1062,2	0,018
1062,6	0,018
1063	0,018
1063,4	0,018
1063,8	0,017
1064,3	0,017
1064,7	0,016
1065,1	0,016
1065,5	0,015
1065,9	0,016
1066,3	0,016
1066,7	0,016
1067,1	0,016
1067,6	0,016
1068	0,016
1068,4	0,016
1068,8	0,015
1069,2	0,015
1069,6	0,016
1070	0,016
1070,4	0,016
1070,9	0,017
1071,3	0,017
1071,7	0,017
1072,1	0,016
1072,5	0,016
1072,9	0,016
1073,3	0,016
1073,7	0,016
1074,2	0,017
1074,6	0,017
1075	0,018
1075,4	0,018
1075,8	0,019
1076,2	0,018
1076,6	0,017
1077	0,017
1077,5	0,016
1077,9	0,016
1078,3	0,015
1078,7	0,015
1079,1	0,016
1079,5	0,016
1079,9	0,015
1080,3	0,015
1080,7	0,015
1081,2	0,014
1081,6	0,014
1082	0,014
1082,4	0,013
1082,8	0,013
1083,2	0,015
1083,6	0,014
1084	0,015
1084,5	0,017
1084,9	0,016
1085,3	0,016
1085,7	0,018
1086,1	0,016
1086,5	0,019
1086,9	0,019
1087,3	0,018
1087,7	0,021
1088,2	0,02
1088,6	0,019
1089	0,02
1089,4	0,021
1089,8	0,022
1090,2	0,021
1090,6	0,02
1091	0,024
1091,4	0,024
1091,9	0,022
1092,3	0,021
1092,7	0,017
1093,1	0,021
1093,5	0,02
1093,9	0,018
1094,3	0,021
1094,7	0,025
1095,1	0,027
1095,5	0,031
1096	0,024
1096,4	0,03
1096,8	0,026
1097,2	0,023
1097,6	0,022
1098	0,016
1098,4	0,02
1098,8	0,025
1099,2	0,018
1099,6	0,023
1100,1	0,02
1100,5	0,018
1100,9	0,018
1101,3	0,015
1101,7	0,021
1102,1	0,016
1102,5	0,01
1102,9	0,02
1103,3	0,02
1103,7	0,026
1104,2	0,018
1104,6	0,006
1105	0,011
1105,4	0,016
1105,8	0,012
1106,2	0,01
1106,6	0,007
1107	0,016
1107,4	0,03
1107,8	0,015
1108,3	-0,319
