Data from Absorbance_030.txt Node
Date: Fri Nov 13 13:08:27 MSK 2020
User: vat
Spectrometer: MAYP114033
Trigger mode: 0
Integration Time (sec): 8,000000E-3
Scans to average: 10
Electric dark correction enabled: true
Nonlinearity correction enabled: false
Boxcar width: 3
XAxis mode: Wavelengths
Number of Pixels in Spectrum: 2068
>>>>>Begin Spectral Data<<<<<
199,4	-0
199,9	0,417
200,4	0,174
200,8	0,092
201,3	0,035
201,8	0,064
202,2	0,052
202,7	0,037
203,2	0,028
203,6	0,024
204,1	0,031
204,6	0,009
205	0
205,5	-0,009
206	-0,017
206,4	-0,024
206,9	-0,031
207,4	-0,049
207,8	-0,02
208,3	-0,018
208,8	-0,005
209,2	0,007
209,7	0,003
210,2	0,014
210,6	0,028
211,1	0,021
211,5	0,029
212	0,031
212,5	0,012
212,9	0,019
213,4	0,015
213,9	0,008
214,3	0,019
214,8	0,009
215,3	0,004
215,7	0,018
216,2	0,012
216,7	0,007
217,1	0,011
217,6	0,013
218,1	0,031
218,5	0,026
219	0,029
219,5	0,047
219,9	0,042
220,4	0,04
220,9	0,028
221,3	0,022
221,8	0,016
222,3	0,019
222,7	0,023
223,2	0,037
223,6	0,036
224,1	0,036
224,6	0,029
225	0,038
225,5	0,022
226	0,017
226,4	0,006
226,9	0,004
227,4	0,014
227,8	0,02
228,3	0,024
228,8	0,024
229,2	0,008
229,7	0,008
230,2	0,008
230,6	-0,001
231,1	-0,005
231,5	0,002
232	0,008
232,5	0,006
232,9	0,009
233,4	0,015
233,9	0,022
234,3	0,034
234,8	0,022
235,3	0,029
235,7	0,036
236,2	0,041
236,7	0,04
237,1	0,03
237,6	0,013
238,1	0,015
238,5	0,025
239	0,027
239,4	0,025
239,9	0,033
240,4	0,039
240,8	0,051
241,3	0,05
241,8	0,03
242,2	0,037
242,7	0,045
243,2	0,035
243,6	0,046
244,1	0,053
244,6	0,057
245	0,069
245,5	0,071
245,9	0,074
246,4	0,083
246,9	0,073
247,3	0,07
247,8	0,073
248,3	0,082
248,7	0,08
249,2	0,076
249,7	0,077
250,1	0,084
250,6	0,08
251	0,075
251,5	0,071
252	0,069
252,4	0,07
252,9	0,069
253,4	0,071
253,8	0,07
254,3	0,07
254,8	0,072
255,2	0,076
255,7	0,08
256,1	0,082
256,6	0,084
257,1	0,087
257,5	0,091
258	0,093
258,5	0,096
258,9	0,099
259,4	0,103
259,9	0,107
260,3	0,11
260,8	0,114
261,2	0,118
261,7	0,122
262,2	0,127
262,6	0,133
263,1	0,138
263,6	0,142
264	0,147
264,5	0,153
264,9	0,158
265,4	0,163
265,9	0,167
266,3	0,172
266,8	0,177
267,3	0,183
267,7	0,187
268,2	0,193
268,7	0,198
269,1	0,203
269,6	0,208
270	0,213
270,5	0,218
271	0,224
271,4	0,229
271,9	0,235
272,4	0,24
272,8	0,245
273,3	0,25
273,7	0,254
274,2	0,258
274,7	0,262
275,1	0,266
275,6	0,27
276,1	0,275
276,5	0,279
277	0,282
277,4	0,286
277,9	0,29
278,4	0,293
278,8	0,295
279,3	0,298
279,8	0,3
280,2	0,302
280,7	0,303
281,1	0,305
281,6	0,307
282,1	0,308
282,5	0,308
283	0,309
283,4	0,31
283,9	0,31
284,4	0,309
284,8	0,308
285,3	0,307
285,8	0,305
286,2	0,303
286,7	0,301
287,1	0,298
287,6	0,295
288,1	0,292
288,5	0,289
289	0,285
289,5	0,281
289,9	0,277
290,4	0,273
290,8	0,268
291,3	0,263
291,8	0,258
292,2	0,252
292,7	0,246
293,1	0,24
293,6	0,234
294,1	0,227
294,5	0,221
295	0,214
295,5	0,207
295,9	0,201
296,4	0,194
296,8	0,187
297,3	0,18
297,8	0,173
298,2	0,166
298,7	0,159
299,1	0,152
299,6	0,144
300,1	0,138
300,5	0,131
301	0,124
301,5	0,118
301,9	0,112
302,4	0,106
302,8	0,1
303,3	0,093
303,8	0,088
304,2	0,082
304,7	0,077
305,1	0,072
305,6	0,067
306,1	0,062
306,5	0,058
307	0,053
307,4	0,049
307,9	0,045
308,4	0,04
308,8	0,037
309,3	0,034
309,8	0,03
310,2	0,027
310,7	0,025
311,1	0,022
311,6	0,02
312,1	0,017
312,5	0,015
313	0,013
313,4	0,011
313,9	0,009
314,4	0,008
314,8	0,006
315,3	0,004
315,7	0,003
316,2	0,001
316,7	-0,001
317,1	-0,002
317,6	-0,003
318	-0,004
318,5	-0,005
319	-0,006
319,4	-0,006
319,9	-0,007
320,3	-0,007
320,8	-0,008
321,3	-0,009
321,7	-0,01
322,2	-0,01
322,6	-0,011
323,1	-0,011
323,6	-0,011
324	-0,012
324,5	-0,013
324,9	-0,013
325,4	-0,013
325,9	-0,013
326,3	-0,013
326,8	-0,014
327,2	-0,014
327,7	-0,014
328,2	-0,014
328,6	-0,014
329,1	-0,015
329,5	-0,015
330	-0,015
330,5	-0,015
330,9	-0,016
331,4	-0,016
331,8	-0,016
332,3	-0,016
332,8	-0,016
333,2	-0,016
333,7	-0,016
334,1	-0,016
334,6	-0,016
335,1	-0,016
335,5	-0,016
336	-0,017
336,4	-0,017
336,9	-0,017
337,4	-0,017
337,8	-0,017
338,3	-0,017
338,7	-0,017
339,2	-0,017
339,7	-0,017
340,1	-0,017
340,6	-0,017
341	-0,017
341,5	-0,017
342	-0,017
342,4	-0,017
342,9	-0,017
343,3	-0,018
343,8	-0,018
344,2	-0,018
344,7	-0,017
345,2	-0,017
345,6	-0,017
346,1	-0,017
346,5	-0,017
347	-0,017
347,5	-0,016
347,9	-0,017
348,4	-0,017
348,8	-0,016
349,3	-0,017
349,8	-0,017
350,2	-0,017
350,7	-0,018
351,1	-0,018
351,6	-0,018
352	-0,019
352,5	-0,019
353	-0,019
353,4	-0,019
353,9	-0,019
354,3	-0,019
354,8	-0,019
355,3	-0,018
355,7	-0,018
356,2	-0,018
356,6	-0,018
357,1	-0,018
357,5	-0,018
358	-0,018
358,5	-0,018
358,9	-0,018
359,4	-0,018
359,8	-0,019
360,3	-0,019
360,8	-0,019
361,2	-0,019
361,7	-0,019
362,1	-0,019
362,6	-0,019
363	-0,019
363,5	-0,019
364	-0,019
364,4	-0,019
364,9	-0,02
365,3	-0,019
365,8	-0,019
366,3	-0,02
366,7	-0,02
367,2	-0,019
367,6	-0,019
368,1	-0,019
368,5	-0,019
369	-0,019
369,5	-0,019
369,9	-0,019
370,4	-0,019
370,8	-0,019
371,3	-0,019
371,7	-0,019
372,2	-0,018
372,7	-0,018
373,1	-0,018
373,6	-0,019
374	-0,019
374,5	-0,019
374,9	-0,019
375,4	-0,02
375,9	-0,02
376,3	-0,02
376,8	-0,02
377,2	-0,02
377,7	-0,02
378,2	-0,02
378,6	-0,02
379,1	-0,02
379,5	-0,019
380	-0,02
380,4	-0,02
380,9	-0,02
381,4	-0,02
381,8	-0,021
382,3	-0,021
382,7	-0,02
383,2	-0,02
383,6	-0,02
384,1	-0,02
384,6	-0,02
385	-0,02
385,5	-0,02
385,9	-0,02
386,4	-0,02
386,8	-0,021
387,3	-0,021
387,7	-0,021
388,2	-0,021
388,7	-0,021
389,1	-0,021
389,6	-0,021
390	-0,021
390,5	-0,02
390,9	-0,02
391,4	-0,02
391,9	-0,021
392,3	-0,02
392,8	-0,02
393,2	-0,02
393,7	-0,02
394,1	-0,02
394,6	-0,02
395,1	-0,02
395,5	-0,021
396	-0,021
396,4	-0,021
396,9	-0,021
397,3	-0,021
397,8	-0,021
398,2	-0,021
398,7	-0,021
399,2	-0,021
399,6	-0,021
400,1	-0,021
400,5	-0,021
401	-0,021
401,4	-0,021
401,9	-0,021
402,4	-0,021
402,8	-0,021
403,3	-0,021
403,7	-0,021
404,2	-0,021
404,6	-0,022
405,1	-0,022
405,5	-0,022
406	-0,022
406,5	-0,022
406,9	-0,022
407,4	-0,022
407,8	-0,022
408,3	-0,022
408,7	-0,022
409,2	-0,022
409,6	-0,022
410,1	-0,021
410,6	-0,021
411	-0,021
411,5	-0,021
411,9	-0,021
412,4	-0,021
412,8	-0,021
413,3	-0,021
413,7	-0,022
414,2	-0,022
414,7	-0,022
415,1	-0,022
415,6	-0,022
416	-0,022
416,5	-0,022
416,9	-0,021
417,4	-0,021
417,8	-0,021
418,3	-0,021
418,8	-0,022
419,2	-0,022
419,7	-0,021
420,1	-0,022
420,6	-0,022
421	-0,022
421,5	-0,022
421,9	-0,022
422,4	-0,022
422,8	-0,022
423,3	-0,022
423,8	-0,022
424,2	-0,022
424,7	-0,022
425,1	-0,021
425,6	-0,022
426	-0,022
426,5	-0,022
426,9	-0,022
427,4	-0,022
427,9	-0,021
428,3	-0,022
428,8	-0,021
429,2	-0,021
429,7	-0,021
430,1	-0,022
430,6	-0,022
431	-0,022
431,5	-0,022
431,9	-0,022
432,4	-0,023
432,8	-0,022
433,3	-0,022
433,8	-0,022
434,2	-0,022
434,7	-0,023
435,1	-0,022
435,6	-0,022
436	-0,022
436,5	-0,022
436,9	-0,022
437,4	-0,022
437,8	-0,021
438,3	-0,021
438,8	-0,021
439,2	-0,022
439,7	-0,022
440,1	-0,022
440,6	-0,023
441	-0,022
441,5	-0,023
441,9	-0,023
442,4	-0,022
442,8	-0,022
443,3	-0,022
443,7	-0,022
444,2	-0,022
444,7	-0,022
445,1	-0,022
445,6	-0,022
446	-0,022
446,5	-0,022
446,9	-0,022
447,4	-0,022
447,8	-0,022
448,3	-0,022
448,7	-0,022
449,2	-0,022
449,6	-0,022
450,1	-0,022
450,6	-0,023
451	-0,023
451,5	-0,023
451,9	-0,023
452,4	-0,023
452,8	-0,023
453,3	-0,023
453,7	-0,022
454,2	-0,022
454,6	-0,023
455,1	-0,022
455,5	-0,023
456	-0,023
456,4	-0,023
456,9	-0,023
457,3	-0,023
457,8	-0,023
458,3	-0,023
458,7	-0,023
459,2	-0,022
459,6	-0,023
460,1	-0,022
460,5	-0,022
461	-0,022
461,4	-0,022
461,9	-0,022
462,3	-0,022
462,8	-0,022
463,2	-0,022
463,7	-0,022
464,1	-0,023
464,6	-0,023
465	-0,023
465,5	-0,023
466	-0,023
466,4	-0,023
466,9	-0,023
467,3	-0,023
467,8	-0,023
468,2	-0,023
468,7	-0,023
469,1	-0,024
469,6	-0,024
470	-0,024
470,5	-0,024
470,9	-0,023
471,4	-0,023
471,8	-0,023
472,3	-0,022
472,7	-0,022
473,2	-0,022
473,6	-0,022
474,1	-0,022
474,5	-0,023
475	-0,022
475,4	-0,023
475,9	-0,023
476,4	-0,023
476,8	-0,023
477,3	-0,023
477,7	-0,023
478,2	-0,023
478,6	-0,023
479,1	-0,023
479,5	-0,023
480	-0,023
480,4	-0,022
480,9	-0,023
481,3	-0,023
481,8	-0,022
482,2	-0,023
482,7	-0,022
483,1	-0,022
483,6	-0,023
484	-0,022
484,5	-0,023
484,9	-0,024
485,4	-0,024
485,8	-0,024
486,3	-0,024
486,7	-0,024
487,2	-0,024
487,6	-0,023
488,1	-0,021
488,5	-0,021
489	-0,021
489,4	-0,021
489,9	-0,021
490,4	-0,022
490,8	-0,022
491,3	-0,023
491,7	-0,023
492,2	-0,023
492,6	-0,023
493,1	-0,023
493,5	-0,023
494	-0,023
494,4	-0,022
494,9	-0,023
495,3	-0,023
495,8	-0,023
496,2	-0,023
496,7	-0,023
497,1	-0,023
497,6	-0,023
498	-0,023
498,5	-0,023
498,9	-0,023
499,4	-0,023
499,8	-0,023
500,3	-0,024
500,7	-0,024
501,2	-0,023
501,6	-0,024
502,1	-0,023
502,5	-0,023
503	-0,023
503,4	-0,023
503,9	-0,023
504,3	-0,024
504,8	-0,024
505,2	-0,024
505,7	-0,025
506,1	-0,025
506,6	-0,025
507	-0,024
507,5	-0,024
507,9	-0,024
508,4	-0,023
508,8	-0,023
509,3	-0,023
509,7	-0,023
510,2	-0,023
510,6	-0,023
511,1	-0,023
511,5	-0,024
512	-0,023
512,4	-0,023
512,9	-0,023
513,3	-0,024
513,8	-0,024
514,2	-0,024
514,7	-0,024
515,1	-0,025
515,6	-0,025
516	-0,025
516,5	-0,025
516,9	-0,025
517,4	-0,025
517,8	-0,025
518,3	-0,025
518,7	-0,024
519,2	-0,024
519,6	-0,024
520,1	-0,025
520,5	-0,025
521	-0,024
521,4	-0,024
521,9	-0,024
522,3	-0,024
522,8	-0,024
523,2	-0,023
523,7	-0,023
524,1	-0,022
524,6	-0,022
525	-0,022
525,5	-0,023
525,9	-0,023
526,4	-0,023
526,8	-0,023
527,3	-0,023
527,7	-0,024
528,2	-0,024
528,6	-0,024
529,1	-0,024
529,5	-0,025
530	-0,025
530,4	-0,025
530,9	-0,025
531,3	-0,025
531,8	-0,025
532,2	-0,025
532,6	-0,024
533,1	-0,024
533,5	-0,024
534	-0,024
534,4	-0,024
534,9	-0,024
535,3	-0,024
535,8	-0,024
536,2	-0,025
536,7	-0,025
537,1	-0,025
537,6	-0,024
538	-0,024
538,5	-0,024
538,9	-0,024
539,4	-0,024
539,8	-0,024
540,3	-0,024
540,7	-0,025
541,2	-0,024
541,6	-0,024
542,1	-0,024
542,5	-0,024
543	-0,024
543,4	-0,024
543,9	-0,024
544,3	-0,024
544,8	-0,024
545,2	-0,023
545,7	-0,023
546,1	-0,023
546,5	-0,023
547	-0,023
547,4	-0,023
547,9	-0,023
548,3	-0,024
548,8	-0,024
549,2	-0,025
549,7	-0,024
550,1	-0,025
550,6	-0,024
551	-0,025
551,5	-0,025
551,9	-0,024
552,4	-0,024
552,8	-0,024
553,3	-0,024
553,7	-0,024
554,2	-0,024
554,6	-0,024
555,1	-0,024
555,5	-0,024
555,9	-0,024
556,4	-0,023
556,8	-0,023
557,3	-0,023
557,7	-0,023
558,2	-0,023
558,6	-0,024
559,1	-0,024
559,5	-0,024
560	-0,023
560,4	-0,024
560,9	-0,024
561,3	-0,024
561,8	-0,023
562,2	-0,024
562,7	-0,023
563,1	-0,024
563,6	-0,024
564	-0,024
564,4	-0,024
564,9	-0,024
565,3	-0,023
565,8	-0,024
566,2	-0,023
566,7	-0,023
567,1	-0,024
567,6	-0,023
568	-0,023
568,5	-0,024
568,9	-0,024
569,4	-0,024
569,8	-0,024
570,3	-0,024
570,7	-0,024
571,1	-0,024
571,6	-0,024
572	-0,024
572,5	-0,024
572,9	-0,024
573,4	-0,024
573,8	-0,024
574,3	-0,024
574,7	-0,024
575,2	-0,024
575,6	-0,024
576,1	-0,024
576,5	-0,024
576,9	-0,024
577,4	-0,024
577,8	-0,024
578,3	-0,024
578,7	-0,024
579,2	-0,024
579,6	-0,023
580,1	-0,023
580,5	-0,024
581	-0,024
581,4	-0,024
581,9	-0,023
582,3	-0,023
582,7	-0,023
583,2	-0,023
583,6	-0,023
584,1	-0,023
584,5	-0,023
585	-0,023
585,4	-0,023
585,9	-0,024
586,3	-0,024
586,8	-0,024
587,2	-0,024
587,6	-0,023
588,1	-0,023
588,5	-0,023
589	-0,024
589,4	-0,023
589,9	-0,023
590,3	-0,023
590,8	-0,023
591,2	-0,023
591,7	-0,024
592,1	-0,023
592,5	-0,023
593	-0,024
593,4	-0,024
593,9	-0,024
594,3	-0,024
594,8	-0,024
595,2	-0,024
595,7	-0,024
596,1	-0,024
596,6	-0,024
597	-0,024
597,4	-0,024
597,9	-0,024
598,3	-0,024
598,8	-0,024
599,2	-0,024
599,7	-0,024
600,1	-0,024
600,6	-0,023
601	-0,023
601,4	-0,023
601,9	-0,023
602,3	-0,024
602,8	-0,024
603,2	-0,024
603,7	-0,024
604,1	-0,024
604,6	-0,024
605	-0,024
605,4	-0,024
605,9	-0,024
606,3	-0,024
606,8	-0,024
607,2	-0,024
607,7	-0,024
608,1	-0,024
608,6	-0,024
609	-0,024
609,4	-0,024
609,9	-0,024
610,3	-0,024
610,8	-0,024
611,2	-0,024
611,7	-0,024
612,1	-0,024
612,6	-0,024
613	-0,024
613,4	-0,024
613,9	-0,025
614,3	-0,025
614,8	-0,025
615,2	-0,024
615,7	-0,024
616,1	-0,024
616,6	-0,024
617	-0,024
617,4	-0,024
617,9	-0,024
618,3	-0,024
618,8	-0,024
619,2	-0,024
619,7	-0,024
620,1	-0,024
620,5	-0,024
621	-0,024
621,4	-0,024
621,9	-0,024
622,3	-0,024
622,8	-0,024
623,2	-0,025
623,6	-0,024
624,1	-0,024
624,5	-0,024
625	-0,024
625,4	-0,024
625,9	-0,024
626,3	-0,023
626,8	-0,023
627,2	-0,023
627,6	-0,023
628,1	-0,023
628,5	-0,023
629	-0,023
629,4	-0,023
629,9	-0,024
630,3	-0,024
630,7	-0,024
631,2	-0,024
631,6	-0,024
632,1	-0,024
632,5	-0,024
633	-0,024
633,4	-0,024
633,8	-0,024
634,3	-0,024
634,7	-0,024
635,2	-0,024
635,6	-0,024
636,1	-0,024
636,5	-0,024
636,9	-0,024
637,4	-0,024
637,8	-0,024
638,3	-0,024
638,7	-0,024
639,2	-0,024
639,6	-0,023
640	-0,024
640,5	-0,024
640,9	-0,024
641,4	-0,024
641,8	-0,025
642,2	-0,025
642,7	-0,025
643,1	-0,025
643,6	-0,025
644	-0,025
644,5	-0,025
644,9	-0,024
645,3	-0,024
645,8	-0,024
646,2	-0,024
646,7	-0,024
647,1	-0,025
647,6	-0,025
648	-0,025
648,4	-0,025
648,9	-0,025
649,3	-0,026
649,8	-0,025
650,2	-0,025
650,6	-0,025
651,1	-0,025
651,5	-0,025
652	-0,025
652,4	-0,024
652,9	-0,024
653,3	-0,022
653,7	-0,019
654,2	-0,012
654,6	-0,008
655,1	-0,006
655,5	-0,006
655,9	-0,006
656,4	-0,006
656,8	-0,005
657,3	-0,007
657,7	-0,011
658,2	-0,017
658,6	-0,02
659	-0,022
659,5	-0,022
659,9	-0,023
660,4	-0,023
660,8	-0,023
661,2	-0,024
661,7	-0,024
662,1	-0,024
662,6	-0,024
663	-0,024
663,4	-0,024
663,9	-0,024
664,3	-0,024
664,8	-0,024
665,2	-0,024
665,6	-0,024
666,1	-0,024
666,5	-0,024
667	-0,024
667,4	-0,024
667,9	-0,024
668,3	-0,024
668,7	-0,024
669,2	-0,024
669,6	-0,024
670,1	-0,024
670,5	-0,024
670,9	-0,024
671,4	-0,025
671,8	-0,025
672,3	-0,025
672,7	-0,025
673,1	-0,025
673,6	-0,025
674	-0,024
674,5	-0,024
674,9	-0,024
675,3	-0,024
675,8	-0,024
676,2	-0,024
676,7	-0,024
677,1	-0,024
677,5	-0,025
678	-0,024
678,4	-0,025
678,9	-0,025
679,3	-0,025
679,7	-0,025
680,2	-0,025
680,6	-0,024
681,1	-0,024
681,5	-0,024
681,9	-0,024
682,4	-0,024
682,8	-0,024
683,3	-0,025
683,7	-0,025
684,1	-0,025
684,6	-0,025
685	-0,025
685,5	-0,024
685,9	-0,024
686,3	-0,024
686,8	-0,024
687,2	-0,024
687,7	-0,024
688,1	-0,024
688,5	-0,024
689	-0,024
689,4	-0,024
689,9	-0,024
690,3	-0,024
690,7	-0,024
691,2	-0,024
691,6	-0,025
692	-0,025
692,5	-0,025
692,9	-0,025
693,4	-0,025
693,8	-0,025
694,2	-0,024
694,7	-0,024
695,1	-0,024
695,6	-0,024
696	-0,024
696,4	-0,024
696,9	-0,024
697,3	-0,024
697,8	-0,024
698,2	-0,024
698,6	-0,024
699,1	-0,024
699,5	-0,024
699,9	-0,024
700,4	-0,024
700,8	-0,024
701,3	-0,024
701,7	-0,024
702,1	-0,024
702,6	-0,025
703	-0,024
703,5	-0,024
703,9	-0,024
704,3	-0,024
704,8	-0,025
705,2	-0,024
705,6	-0,024
706,1	-0,025
706,5	-0,025
707	-0,025
707,4	-0,025
707,8	-0,025
708,3	-0,025
708,7	-0,025
709,2	-0,025
709,6	-0,025
710	-0,025
710,5	-0,025
710,9	-0,025
711,3	-0,025
711,8	-0,024
712,2	-0,024
712,7	-0,024
713,1	-0,025
713,5	-0,025
714	-0,025
714,4	-0,025
714,8	-0,025
715,3	-0,025
715,7	-0,025
716,2	-0,025
716,6	-0,025
717	-0,025
717,5	-0,024
717,9	-0,025
718,3	-0,025
718,8	-0,025
719,2	-0,025
719,7	-0,025
720,1	-0,025
720,5	-0,025
721	-0,025
721,4	-0,025
721,8	-0,025
722,3	-0,025
722,7	-0,025
723,2	-0,025
723,6	-0,024
724	-0,024
724,5	-0,024
724,9	-0,024
725,3	-0,024
725,8	-0,024
726,2	-0,024
726,7	-0,024
727,1	-0,024
727,5	-0,024
728	-0,024
728,4	-0,024
728,8	-0,025
729,3	-0,025
729,7	-0,025
730,1	-0,025
730,6	-0,025
731	-0,025
731,5	-0,025
731,9	-0,025
732,3	-0,025
732,8	-0,025
733,2	-0,025
733,6	-0,025
734,1	-0,025
734,5	-0,024
734,9	-0,024
735,4	-0,024
735,8	-0,024
736,3	-0,024
736,7	-0,024
737,1	-0,024
737,6	-0,024
738	-0,024
738,4	-0,024
738,9	-0,024
739,3	-0,023
739,7	-0,023
740,2	-0,023
740,6	-0,023
741,1	-0,023
741,5	-0,023
741,9	-0,023
742,4	-0,023
742,8	-0,023
743,2	-0,024
743,7	-0,024
744,1	-0,025
744,5	-0,025
745	-0,025
745,4	-0,025
745,8	-0,025
746,3	-0,024
746,7	-0,024
747,2	-0,024
747,6	-0,024
748	-0,024
748,5	-0,025
748,9	-0,025
749,3	-0,025
749,8	-0,025
750,2	-0,024
750,6	-0,025
751,1	-0,025
751,5	-0,024
751,9	-0,024
752,4	-0,024
752,8	-0,025
753,3	-0,025
753,7	-0,025
754,1	-0,024
754,6	-0,025
755	-0,025
755,4	-0,025
755,9	-0,024
756,3	-0,025
756,7	-0,025
757,2	-0,025
757,6	-0,025
758	-0,024
758,5	-0,024
758,9	-0,024
759,3	-0,024
759,8	-0,024
760,2	-0,024
760,6	-0,024
761,1	-0,025
761,5	-0,025
761,9	-0,025
762,4	-0,025
762,8	-0,025
763,3	-0,025
763,7	-0,025
764,1	-0,025
764,6	-0,025
765	-0,025
765,4	-0,024
765,9	-0,024
766,3	-0,024
766,7	-0,023
767,2	-0,024
767,6	-0,024
768	-0,024
768,5	-0,024
768,9	-0,025
769,3	-0,025
769,8	-0,025
770,2	-0,025
770,6	-0,025
771,1	-0,025
771,5	-0,024
771,9	-0,024
772,4	-0,024
772,8	-0,024
773,2	-0,024
773,7	-0,024
774,1	-0,024
774,5	-0,024
775	-0,024
775,4	-0,024
775,8	-0,024
776,3	-0,024
776,7	-0,024
777,1	-0,024
777,6	-0,024
778	-0,024
778,4	-0,025
778,9	-0,024
779,3	-0,024
779,7	-0,025
780,2	-0,025
780,6	-0,025
781	-0,024
781,5	-0,024
781,9	-0,024
782,3	-0,024
782,8	-0,024
783,2	-0,024
783,6	-0,024
784,1	-0,024
784,5	-0,025
784,9	-0,025
785,4	-0,025
785,8	-0,025
786,2	-0,025
786,7	-0,025
787,1	-0,025
787,5	-0,025
788	-0,024
788,4	-0,024
788,8	-0,024
789,3	-0,024
789,7	-0,024
790,1	-0,024
790,6	-0,024
791	-0,025
791,4	-0,025
791,9	-0,025
792,3	-0,025
792,7	-0,024
793,2	-0,024
793,6	-0,024
794	-0,024
794,5	-0,024
794,9	-0,024
795,3	-0,024
795,8	-0,024
796,2	-0,024
796,6	-0,024
797,1	-0,024
797,5	-0,024
797,9	-0,024
798,4	-0,024
798,8	-0,024
799,2	-0,024
799,7	-0,024
800,1	-0,024
800,5	-0,024
801	-0,024
801,4	-0,024
801,8	-0,024
802,2	-0,024
802,7	-0,024
803,1	-0,024
803,5	-0,024
804	-0,024
804,4	-0,024
804,8	-0,024
805,3	-0,024
805,7	-0,024
806,1	-0,024
806,6	-0,024
807	-0,025
807,4	-0,025
807,9	-0,025
808,3	-0,025
808,7	-0,025
809,2	-0,025
809,6	-0,025
810	-0,025
810,4	-0,024
810,9	-0,024
811,3	-0,024
811,7	-0,024
812,2	-0,024
812,6	-0,024
813	-0,023
813,5	-0,024
813,9	-0,024
814,3	-0,024
814,8	-0,024
815,2	-0,024
815,6	-0,024
816,1	-0,024
816,5	-0,024
816,9	-0,024
817,3	-0,024
817,8	-0,024
818,2	-0,024
818,6	-0,024
819,1	-0,024
819,5	-0,024
819,9	-0,024
820,4	-0,024
820,8	-0,024
821,2	-0,024
821,7	-0,024
822,1	-0,024
822,5	-0,024
822,9	-0,024
823,4	-0,024
823,8	-0,024
824,2	-0,024
824,7	-0,024
825,1	-0,024
825,5	-0,024
826	-0,024
826,4	-0,024
826,8	-0,024
827,3	-0,024
827,7	-0,024
828,1	-0,024
828,5	-0,024
829	-0,024
829,4	-0,024
829,8	-0,024
830,3	-0,024
830,7	-0,024
831,1	-0,024
831,6	-0,025
832	-0,025
832,4	-0,025
832,8	-0,025
833,3	-0,025
833,7	-0,025
834,1	-0,025
834,6	-0,025
835	-0,025
835,4	-0,025
835,8	-0,025
836,3	-0,025
836,7	-0,025
837,1	-0,025
837,6	-0,025
838	-0,025
838,4	-0,025
838,9	-0,025
839,3	-0,025
839,7	-0,024
840,1	-0,024
840,6	-0,025
841	-0,025
841,4	-0,025
841,9	-0,025
842,3	-0,025
842,7	-0,025
843,1	-0,025
843,6	-0,025
844	-0,025
844,4	-0,025
844,9	-0,024
845,3	-0,024
845,7	-0,024
846,2	-0,024
846,6	-0,023
847	-0,023
847,4	-0,023
847,9	-0,023
848,3	-0,024
848,7	-0,024
849,2	-0,024
849,6	-0,024
850	-0,025
850,4	-0,025
850,9	-0,025
851,3	-0,025
851,7	-0,025
852,2	-0,025
852,6	-0,025
853	-0,024
853,4	-0,024
853,9	-0,024
854,3	-0,024
854,7	-0,024
855,2	-0,024
855,6	-0,024
856	-0,024
856,4	-0,024
856,9	-0,024
857,3	-0,025
857,7	-0,024
858,2	-0,024
858,6	-0,025
859	-0,025
859,4	-0,025
859,9	-0,025
860,3	-0,024
860,7	-0,024
861,1	-0,024
861,6	-0,023
862	-0,023
862,4	-0,023
862,9	-0,023
863,3	-0,024
863,7	-0,024
864,1	-0,024
864,6	-0,025
865	-0,025
865,4	-0,025
865,9	-0,025
866,3	-0,025
866,7	-0,025
867,1	-0,025
867,6	-0,025
868	-0,025
868,4	-0,024
868,8	-0,024
869,3	-0,024
869,7	-0,024
870,1	-0,024
870,6	-0,023
871	-0,023
871,4	-0,024
871,8	-0,024
872,3	-0,024
872,7	-0,024
873,1	-0,024
873,5	-0,025
874	-0,025
874,4	-0,025
874,8	-0,025
875,3	-0,025
875,7	-0,025
876,1	-0,025
876,5	-0,025
877	-0,025
877,4	-0,025
877,8	-0,024
878,2	-0,024
878,7	-0,024
879,1	-0,024
879,5	-0,024
879,9	-0,024
880,4	-0,024
880,8	-0,024
881,2	-0,024
881,7	-0,024
882,1	-0,024
882,5	-0,024
882,9	-0,024
883,4	-0,024
883,8	-0,024
884,2	-0,024
884,6	-0,024
885,1	-0,024
885,5	-0,024
885,9	-0,024
886,3	-0,024
886,8	-0,024
887,2	-0,025
887,6	-0,025
888	-0,025
888,5	-0,025
888,9	-0,024
889,3	-0,024
889,8	-0,024
890,2	-0,024
890,6	-0,024
891	-0,024
891,5	-0,024
891,9	-0,024
892,3	-0,024
892,7	-0,024
893,2	-0,024
893,6	-0,024
894	-0,025
894,4	-0,025
894,9	-0,025
895,3	-0,025
895,7	-0,025
896,1	-0,025
896,6	-0,025
897	-0,025
897,4	-0,025
897,8	-0,025
898,3	-0,025
898,7	-0,025
899,1	-0,025
899,5	-0,025
900	-0,025
900,4	-0,024
900,8	-0,024
901,2	-0,024
901,7	-0,024
902,1	-0,024
902,5	-0,025
902,9	-0,025
903,4	-0,025
903,8	-0,025
904,2	-0,025
904,6	-0,024
905,1	-0,024
905,5	-0,024
905,9	-0,024
906,3	-0,024
906,8	-0,024
907,2	-0,024
907,6	-0,024
908	-0,024
908,5	-0,024
908,9	-0,024
909,3	-0,024
909,7	-0,024
910,2	-0,024
910,6	-0,024
911	-0,025
911,4	-0,025
911,9	-0,024
912,3	-0,024
912,7	-0,024
913,1	-0,024
913,6	-0,024
914	-0,024
914,4	-0,024
914,8	-0,025
915,3	-0,025
915,7	-0,025
916,1	-0,025
916,5	-0,025
916,9	-0,025
917,4	-0,025
917,8	-0,025
918,2	-0,025
918,6	-0,024
919,1	-0,024
919,5	-0,024
919,9	-0,023
920,3	-0,023
920,8	-0,023
921,2	-0,024
921,6	-0,024
922	-0,024
922,5	-0,024
922,9	-0,024
923,3	-0,025
923,7	-0,025
924,2	-0,024
924,6	-0,024
925	-0,025
925,4	-0,025
925,8	-0,025
926,3	-0,024
926,7	-0,024
927,1	-0,024
927,5	-0,024
928	-0,024
928,4	-0,023
928,8	-0,023
929,2	-0,023
929,7	-0,023
930,1	-0,023
930,5	-0,023
930,9	-0,024
931,3	-0,025
931,8	-0,025
932,2	-0,025
932,6	-0,025
933	-0,025
933,5	-0,025
933,9	-0,025
934,3	-0,025
934,7	-0,024
935,2	-0,024
935,6	-0,024
936	-0,023
936,4	-0,023
936,8	-0,023
937,3	-0,023
937,7	-0,023
938,1	-0,023
938,5	-0,024
939	-0,024
939,4	-0,024
939,8	-0,024
940,2	-0,024
940,6	-0,024
941,1	-0,025
941,5	-0,025
941,9	-0,024
942,3	-0,025
942,8	-0,025
943,2	-0,025
943,6	-0,025
944	-0,025
944,4	-0,025
944,9	-0,025
945,3	-0,026
945,7	-0,025
946,1	-0,025
946,6	-0,025
947	-0,024
947,4	-0,024
947,8	-0,025
948,2	-0,024
948,7	-0,025
949,1	-0,025
949,5	-0,025
949,9	-0,026
950,3	-0,025
950,8	-0,025
951,2	-0,025
951,6	-0,025
952	-0,025
952,5	-0,025
952,9	-0,025
953,3	-0,025
953,7	-0,026
954,1	-0,025
954,6	-0,025
955	-0,024
955,4	-0,024
955,8	-0,024
956,2	-0,024
956,7	-0,024
957,1	-0,025
957,5	-0,025
957,9	-0,026
958,3	-0,026
958,8	-0,026
959,2	-0,025
959,6	-0,025
960	-0,025
960,5	-0,024
960,9	-0,024
961,3	-0,024
961,7	-0,023
962,1	-0,023
962,6	-0,023
963	-0,023
963,4	-0,023
963,8	-0,023
964,2	-0,023
964,7	-0,023
965,1	-0,023
965,5	-0,023
965,9	-0,023
966,3	-0,023
966,8	-0,024
967,2	-0,024
967,6	-0,025
968	-0,025
968,4	-0,025
968,9	-0,025
969,3	-0,025
969,7	-0,025
970,1	-0,025
970,5	-0,025
971	-0,024
971,4	-0,025
971,8	-0,025
972,2	-0,025
972,6	-0,025
973,1	-0,025
973,5	-0,025
973,9	-0,025
974,3	-0,025
974,7	-0,025
975,2	-0,024
975,6	-0,025
976	-0,025
976,4	-0,025
976,8	-0,024
977,3	-0,024
977,7	-0,024
978,1	-0,024
978,5	-0,023
978,9	-0,024
979,4	-0,024
979,8	-0,024
980,2	-0,025
980,6	-0,024
981	-0,025
981,5	-0,025
981,9	-0,024
982,3	-0,024
982,7	-0,024
983,1	-0,023
983,6	-0,024
984	-0,024
984,4	-0,024
984,8	-0,025
985,2	-0,025
985,6	-0,025
986,1	-0,024
986,5	-0,024
986,9	-0,024
987,3	-0,024
987,7	-0,024
988,2	-0,024
988,6	-0,024
989	-0,024
989,4	-0,024
989,8	-0,025
990,3	-0,025
990,7	-0,025
991,1	-0,024
991,5	-0,025
991,9	-0,025
992,3	-0,024
992,8	-0,024
993,2	-0,024
993,6	-0,024
994	-0,024
994,4	-0,025
994,9	-0,025
995,3	-0,025
995,7	-0,025
996,1	-0,025
996,5	-0,025
996,9	-0,025
997,4	-0,026
997,8	-0,025
998,2	-0,025
998,6	-0,025
999	-0,025
999,5	-0,025
999,9	-0,025
1000,3	-0,024
1000,7	-0,025
1001,1	-0,025
1001,5	-0,025
1002	-0,025
1002,4	-0,025
1002,8	-0,025
1003,2	-0,026
1003,6	-0,025
1004	-0,025
1004,5	-0,025
1004,9	-0,025
1005,3	-0,025
1005,7	-0,025
1006,1	-0,025
1006,6	-0,025
1007	-0,025
1007,4	-0,025
1007,8	-0,024
1008,2	-0,024
1008,6	-0,024
1009,1	-0,023
1009,5	-0,023
1009,9	-0,022
1010,3	-0,022
1010,7	-0,022
1011,1	-0,022
1011,6	-0,022
1012	-0,022
1012,4	-0,022
1012,8	-0,023
1013,2	-0,023
1013,6	-0,023
1014,1	-0,023
1014,5	-0,024
1014,9	-0,025
1015,3	-0,025
1015,7	-0,025
1016,1	-0,025
1016,6	-0,025
1017	-0,025
1017,4	-0,024
1017,8	-0,024
1018,2	-0,023
1018,6	-0,024
1019,1	-0,023
1019,5	-0,024
1019,9	-0,024
1020,3	-0,023
1020,7	-0,024
1021,1	-0,023
1021,6	-0,023
1022	-0,023
1022,4	-0,023
1022,8	-0,023
1023,2	-0,023
1023,6	-0,023
1024,1	-0,023
1024,5	-0,023
1024,9	-0,024
1025,3	-0,023
1025,7	-0,023
1026,1	-0,024
1026,6	-0,024
1027	-0,025
1027,4	-0,025
1027,8	-0,025
1028,2	-0,025
1028,6	-0,024
1029	-0,024
1029,5	-0,024
1029,9	-0,024
1030,3	-0,024
1030,7	-0,023
1031,1	-0,023
1031,5	-0,024
1032	-0,024
1032,4	-0,023
1032,8	-0,023
1033,2	-0,023
1033,6	-0,024
1034	-0,024
1034,4	-0,025
1034,9	-0,024
1035,3	-0,024
1035,7	-0,025
1036,1	-0,025
1036,5	-0,025
1036,9	-0,025
1037,4	-0,024
1037,8	-0,025
1038,2	-0,026
1038,6	-0,025
1039	-0,025
1039,4	-0,024
1039,8	-0,024
1040,3	-0,024
1040,7	-0,024
1041,1	-0,023
1041,5	-0,023
1041,9	-0,023
1042,3	-0,025
1042,7	-0,025
1043,2	-0,025
1043,6	-0,025
1044	-0,025
1044,4	-0,025
1044,8	-0,025
1045,2	-0,024
1045,6	-0,024
1046,1	-0,024
1046,5	-0,024
1046,9	-0,023
1047,3	-0,024
1047,7	-0,024
1048,1	-0,024
1048,5	-0,023
1049	-0,023
1049,4	-0,024
1049,8	-0,024
1050,2	-0,023
1050,6	-0,023
1051	-0,023
1051,4	-0,023
1051,9	-0,024
1052,3	-0,024
1052,7	-0,024
1053,1	-0,023
1053,5	-0,023
1053,9	-0,023
1054,3	-0,023
1054,8	-0,023
1055,2	-0,022
1055,6	-0,024
1056	-0,024
1056,4	-0,024
1056,8	-0,024
1057,2	-0,024
1057,6	-0,023
1058,1	-0,024
1058,5	-0,023
1058,9	-0,022
1059,3	-0,022
1059,7	-0,023
1060,1	-0,024
1060,5	-0,024
1061	-0,023
1061,4	-0,023
1061,8	-0,023
1062,2	-0,023
1062,6	-0,022
1063	-0,022
1063,4	-0,021
1063,8	-0,022
1064,3	-0,023
1064,7	-0,022
1065,1	-0,022
1065,5	-0,022
1065,9	-0,022
1066,3	-0,023
1066,7	-0,023
1067,1	-0,023
1067,6	-0,023
1068	-0,023
1068,4	-0,024
1068,8	-0,024
1069,2	-0,023
1069,6	-0,023
1070	-0,023
1070,4	-0,025
1070,9	-0,026
1071,3	-0,025
1071,7	-0,026
1072,1	-0,027
1072,5	-0,027
1072,9	-0,026
1073,3	-0,025
1073,7	-0,025
1074,2	-0,026
1074,6	-0,024
1075	-0,023
1075,4	-0,023
1075,8	-0,023
1076,2	-0,024
1076,6	-0,023
1077	-0,021
1077,5	-0,024
1077,9	-0,024
1078,3	-0,024
1078,7	-0,025
1079,1	-0,024
1079,5	-0,025
1079,9	-0,027
1080,3	-0,026
1080,7	-0,027
1081,2	-0,027
1081,6	-0,027
1082	-0,028
1082,4	-0,028
1082,8	-0,026
1083,2	-0,026
1083,6	-0,026
1084	-0,027
1084,5	-0,026
1084,9	-0,027
1085,3	-0,026
1085,7	-0,026
1086,1	-0,025
1086,5	-0,024
1086,9	-0,024
1087,3	-0,025
1087,7	-0,024
1088,2	-0,026
1088,6	-0,027
1089	-0,026
1089,4	-0,027
1089,8	-0,025
1090,2	-0,025
1090,6	-0,022
1091	-0,021
1091,4	-0,023
1091,9	-0,024
1092,3	-0,023
1092,7	-0,019
1093,1	-0,021
1093,5	-0,026
1093,9	-0,024
1094,3	-0,026
1094,7	-0,025
1095,1	-0,026
1095,5	-0,03
1096	-0,029
1096,4	-0,023
1096,8	-0,024
1097,2	-0,018
1097,6	-0,018
1098	-0,02
1098,4	-0,024
1098,8	-0,018
1099,2	-0,021
1099,6	-0,025
1100,1	-0,029
1100,5	-0,027
1100,9	-0,026
1101,3	-0,029
1101,7	-0,031
1102,1	-0,038
1102,5	-0,043
1102,9	-0,042
1103,3	-0,042
1103,7	-0,039
1104,2	-0,042
1104,6	-0,042
1105	-0,042
1105,4	-0,029
1105,8	-0,03
1106,2	-0,038
1106,6	-0,055
1107	-0,045
1107,4	-0,071
1107,8	-0,078
1108,3	-0
