Data from Absorbance_081.txt Node
Date: Fri Nov 13 14:34:07 MSK 2020
User: vat
Spectrometer: MAYP114033
Trigger mode: 0
Integration Time (sec): 8,000000E-3
Scans to average: 10
Electric dark correction enabled: true
Nonlinearity correction enabled: false
Boxcar width: 3
XAxis mode: Wavelengths
Number of Pixels in Spectrum: 2068
>>>>>Begin Spectral Data<<<<<
199,4	-0
199,9	0,278
200,4	0,114
200,8	0,157
201,3	0,096
201,8	0,131
202,2	0,124
202,7	0,145
203,2	0,143
203,6	0,146
204,1	0,147
204,6	0,15
205	0,151
205,5	0,146
206	0,136
206,4	0,148
206,9	0,152
207,4	0,149
207,8	0,151
208,3	0,132
208,8	0,151
209,2	0,147
209,7	0,157
210,2	0,173
210,6	0,173
211,1	0,173
211,5	0,222
212	0,223
212,5	0,232
212,9	0,219
213,4	0,211
213,9	0,234
214,3	0,237
214,8	0,224
215,3	0,23
215,7	0,216
216,2	0,239
216,7	0,249
217,1	0,23
217,6	0,203
218,1	0,183
218,5	0,192
219	0,218
219,5	0,194
219,9	0,18
220,4	0,164
220,9	0,173
221,3	0,198
221,8	0,203
222,3	0,172
222,7	0,185
223,2	0,199
223,6	0,209
224,1	0,216
224,6	0,192
225	0,19
225,5	0,195
226	0,199
226,4	0,187
226,9	0,166
227,4	0,182
227,8	0,196
228,3	0,185
228,8	0,2
229,2	0,201
229,7	0,214
230,2	0,23
230,6	0,22
231,1	0,234
231,5	0,24
232	0,228
232,5	0,234
232,9	0,251
233,4	0,266
233,9	0,271
234,3	0,263
234,8	0,264
235,3	0,26
235,7	0,258
236,2	0,24
236,7	0,234
237,1	0,25
237,6	0,251
238,1	0,251
238,5	0,262
239	0,261
239,4	0,261
239,9	0,276
240,4	0,276
240,8	0,295
241,3	0,316
241,8	0,323
242,2	0,327
242,7	0,331
243,2	0,333
243,6	0,337
244,1	0,337
244,6	0,343
245	0,358
245,5	0,369
245,9	0,375
246,4	0,381
246,9	0,379
247,3	0,388
247,8	0,382
248,3	0,392
248,7	0,404
249,2	0,418
249,7	0,435
250,1	0,44
250,6	0,44
251	0,452
251,5	0,456
252	0,452
252,4	0,459
252,9	0,467
253,4	0,475
253,8	0,485
254,3	0,494
254,8	0,504
255,2	0,518
255,7	0,531
256,1	0,543
256,6	0,556
257,1	0,569
257,5	0,582
258	0,596
258,5	0,611
258,9	0,625
259,4	0,642
259,9	0,659
260,3	0,677
260,8	0,695
261,2	0,714
261,7	0,732
262,2	0,753
262,6	0,772
263,1	0,791
263,6	0,809
264	0,83
264,5	0,852
264,9	0,872
265,4	0,892
265,9	0,912
266,3	0,933
266,8	0,955
267,3	0,977
267,7	0,998
268,2	1,019
268,7	1,039
269,1	1,06
269,6	1,081
270	1,102
270,5	1,121
271	1,142
271,4	1,162
271,9	1,182
272,4	1,201
272,8	1,219
273,3	1,24
273,7	1,258
274,2	1,277
274,7	1,296
275,1	1,314
275,6	1,332
276,1	1,349
276,5	1,362
277	1,376
277,4	1,386
277,9	1,395
278,4	1,403
278,8	1,416
279,3	1,423
279,8	1,433
280,2	1,438
280,7	1,443
281,1	1,452
281,6	1,457
282,1	1,458
282,5	1,459
283	1,458
283,4	1,46
283,9	1,459
284,4	1,452
284,8	1,445
285,3	1,437
285,8	1,43
286,2	1,421
286,7	1,409
287,1	1,397
287,6	1,385
288,1	1,372
288,5	1,357
289	1,337
289,5	1,319
289,9	1,302
290,4	1,281
290,8	1,261
291,3	1,239
291,8	1,217
292,2	1,195
292,7	1,171
293,1	1,145
293,6	1,119
294,1	1,093
294,5	1,065
295	1,037
295,5	1,01
295,9	0,981
296,4	0,952
296,8	0,922
297,3	0,892
297,8	0,863
298,2	0,834
298,7	0,805
299,1	0,776
299,6	0,748
300,1	0,72
300,5	0,693
301	0,666
301,5	0,64
301,9	0,614
302,4	0,588
302,8	0,563
303,3	0,539
303,8	0,516
304,2	0,493
304,7	0,471
305,1	0,45
305,6	0,43
306,1	0,41
306,5	0,391
307	0,373
307,4	0,356
307,9	0,34
308,4	0,324
308,8	0,309
309,3	0,295
309,8	0,282
310,2	0,269
310,7	0,256
311,1	0,244
311,6	0,233
312,1	0,224
312,5	0,213
313	0,204
313,4	0,195
313,9	0,187
314,4	0,179
314,8	0,171
315,3	0,164
315,7	0,158
316,2	0,152
316,7	0,147
317,1	0,141
317,6	0,137
318	0,132
318,5	0,128
319	0,124
319,4	0,121
319,9	0,117
320,3	0,114
320,8	0,111
321,3	0,108
321,7	0,105
322,2	0,103
322,6	0,101
323,1	0,099
323,6	0,097
324	0,095
324,5	0,094
324,9	0,092
325,4	0,091
325,9	0,09
326,3	0,089
326,8	0,088
327,2	0,087
327,7	0,086
328,2	0,084
328,6	0,083
329,1	0,082
329,5	0,081
330	0,08
330,5	0,079
330,9	0,078
331,4	0,078
331,8	0,077
332,3	0,076
332,8	0,076
333,2	0,075
333,7	0,075
334,1	0,074
334,6	0,073
335,1	0,073
335,5	0,072
336	0,072
336,4	0,072
336,9	0,071
337,4	0,07
337,8	0,07
338,3	0,07
338,7	0,07
339,2	0,07
339,7	0,069
340,1	0,069
340,6	0,069
341	0,069
341,5	0,069
342	0,068
342,4	0,068
342,9	0,068
343,3	0,068
343,8	0,067
344,2	0,066
344,7	0,066
345,2	0,065
345,6	0,065
346,1	0,065
346,5	0,064
347	0,064
347,5	0,064
347,9	0,064
348,4	0,064
348,8	0,064
349,3	0,063
349,8	0,063
350,2	0,063
350,7	0,063
351,1	0,063
351,6	0,063
352	0,062
352,5	0,062
353	0,062
353,4	0,062
353,9	0,062
354,3	0,061
354,8	0,061
355,3	0,061
355,7	0,061
356,2	0,061
356,6	0,061
357,1	0,061
357,5	0,06
358	0,06
358,5	0,06
358,9	0,059
359,4	0,059
359,8	0,059
360,3	0,059
360,8	0,059
361,2	0,058
361,7	0,057
362,1	0,057
362,6	0,057
363	0,057
363,5	0,056
364	0,056
364,4	0,055
364,9	0,055
365,3	0,055
365,8	0,055
366,3	0,055
366,7	0,055
367,2	0,055
367,6	0,055
368,1	0,054
368,5	0,054
369	0,054
369,5	0,053
369,9	0,053
370,4	0,053
370,8	0,052
371,3	0,052
371,7	0,052
372,2	0,052
372,7	0,052
373,1	0,052
373,6	0,052
374	0,052
374,5	0,052
374,9	0,052
375,4	0,052
375,9	0,052
376,3	0,051
376,8	0,051
377,2	0,05
377,7	0,05
378,2	0,05
378,6	0,049
379,1	0,049
379,5	0,049
380	0,049
380,4	0,049
380,9	0,049
381,4	0,048
381,8	0,048
382,3	0,048
382,7	0,048
383,2	0,048
383,6	0,048
384,1	0,048
384,6	0,048
385	0,047
385,5	0,047
385,9	0,047
386,4	0,047
386,8	0,047
387,3	0,046
387,7	0,045
388,2	0,046
388,7	0,045
389,1	0,045
389,6	0,045
390	0,044
390,5	0,044
390,9	0,045
391,4	0,045
391,9	0,044
392,3	0,044
392,8	0,044
393,2	0,044
393,7	0,044
394,1	0,043
394,6	0,043
395,1	0,043
395,5	0,043
396	0,043
396,4	0,043
396,9	0,043
397,3	0,043
397,8	0,042
398,2	0,042
398,7	0,042
399,2	0,042
399,6	0,042
400,1	0,041
400,5	0,041
401	0,041
401,4	0,041
401,9	0,041
402,4	0,041
402,8	0,041
403,3	0,041
403,7	0,041
404,2	0,041
404,6	0,041
405,1	0,04
405,5	0,039
406	0,039
406,5	0,039
406,9	0,039
407,4	0,039
407,8	0,039
408,3	0,039
408,7	0,039
409,2	0,039
409,6	0,038
410,1	0,038
410,6	0,039
411	0,038
411,5	0,038
411,9	0,039
412,4	0,038
412,8	0,038
413,3	0,038
413,7	0,038
414,2	0,038
414,7	0,038
415,1	0,037
415,6	0,037
416	0,037
416,5	0,037
416,9	0,037
417,4	0,036
417,8	0,036
418,3	0,036
418,8	0,037
419,2	0,037
419,7	0,037
420,1	0,037
420,6	0,037
421	0,037
421,5	0,037
421,9	0,037
422,4	0,036
422,8	0,036
423,3	0,035
423,8	0,035
424,2	0,035
424,7	0,035
425,1	0,035
425,6	0,034
426	0,035
426,5	0,035
426,9	0,034
427,4	0,034
427,9	0,034
428,3	0,034
428,8	0,034
429,2	0,034
429,7	0,033
430,1	0,033
430,6	0,033
431	0,033
431,5	0,033
431,9	0,033
432,4	0,034
432,8	0,033
433,3	0,034
433,8	0,033
434,2	0,033
434,7	0,033
435,1	0,032
435,6	0,032
436	0,032
436,5	0,032
436,9	0,032
437,4	0,033
437,8	0,033
438,3	0,033
438,8	0,034
439,2	0,033
439,7	0,033
440,1	0,033
440,6	0,032
441	0,032
441,5	0,031
441,9	0,031
442,4	0,031
442,8	0,031
443,3	0,031
443,7	0,031
444,2	0,031
444,7	0,031
445,1	0,031
445,6	0,031
446	0,03
446,5	0,03
446,9	0,03
447,4	0,03
447,8	0,03
448,3	0,03
448,7	0,031
449,2	0,031
449,6	0,03
450,1	0,03
450,6	0,031
451	0,03
451,5	0,03
451,9	0,03
452,4	0,029
452,8	0,029
453,3	0,029
453,7	0,029
454,2	0,03
454,6	0,029
455,1	0,029
455,5	0,029
456	0,029
456,4	0,029
456,9	0,029
457,3	0,029
457,8	0,029
458,3	0,029
458,7	0,028
459,2	0,028
459,6	0,028
460,1	0,028
460,5	0,028
461	0,028
461,4	0,028
461,9	0,028
462,3	0,028
462,8	0,028
463,2	0,028
463,7	0,027
464,1	0,027
464,6	0,027
465	0,026
465,5	0,026
466	0,026
466,4	0,026
466,9	0,026
467,3	0,026
467,8	0,026
468,2	0,026
468,7	0,026
469,1	0,026
469,6	0,027
470	0,027
470,5	0,027
470,9	0,026
471,4	0,026
471,8	0,026
472,3	0,027
472,7	0,026
473,2	0,026
473,6	0,026
474,1	0,026
474,5	0,026
475	0,027
475,4	0,025
475,9	0,026
476,4	0,026
476,8	0,026
477,3	0,026
477,7	0,025
478,2	0,026
478,6	0,026
479,1	0,026
479,5	0,026
480	0,026
480,4	0,026
480,9	0,026
481,3	0,025
481,8	0,025
482,2	0,025
482,7	0,025
483,1	0,026
483,6	0,027
484	0,027
484,5	0,027
484,9	0,024
485,4	0,024
485,8	0,023
486,3	0,022
486,7	0,021
487,2	0,02
487,6	0,02
488,1	0,022
488,5	0,023
489	0,024
489,4	0,024
489,9	0,024
490,4	0,024
490,8	0,023
491,3	0,024
491,7	0,023
492,2	0,023
492,6	0,024
493,1	0,024
493,5	0,024
494	0,024
494,4	0,024
494,9	0,024
495,3	0,023
495,8	0,023
496,2	0,023
496,7	0,023
497,1	0,022
497,6	0,022
498	0,022
498,5	0,022
498,9	0,023
499,4	0,023
499,8	0,022
500,3	0,022
500,7	0,022
501,2	0,022
501,6	0,022
502,1	0,021
502,5	0,021
503	0,021
503,4	0,02
503,9	0,02
504,3	0,02
504,8	0,021
505,2	0,021
505,7	0,021
506,1	0,021
506,6	0,022
507	0,022
507,5	0,021
507,9	0,021
508,4	0,021
508,8	0,021
509,3	0,021
509,7	0,021
510,2	0,021
510,6	0,021
511,1	0,021
511,5	0,021
512	0,021
512,4	0,02
512,9	0,02
513,3	0,02
513,8	0,02
514,2	0,02
514,7	0,02
515,1	0,02
515,6	0,02
516	0,02
516,5	0,02
516,9	0,02
517,4	0,02
517,8	0,02
518,3	0,02
518,7	0,02
519,2	0,02
519,6	0,019
520,1	0,019
520,5	0,019
521	0,019
521,4	0,019
521,9	0,019
522,3	0,019
522,8	0,019
523,2	0,019
523,7	0,018
524,1	0,019
524,6	0,019
525	0,019
525,5	0,018
525,9	0,018
526,4	0,018
526,8	0,018
527,3	0,018
527,7	0,018
528,2	0,018
528,6	0,019
529,1	0,018
529,5	0,019
530	0,018
530,4	0,018
530,9	0,018
531,3	0,018
531,8	0,018
532,2	0,018
532,6	0,018
533,1	0,018
533,5	0,018
534	0,017
534,4	0,017
534,9	0,017
535,3	0,017
535,8	0,017
536,2	0,017
536,7	0,018
537,1	0,018
537,6	0,018
538	0,017
538,5	0,017
538,9	0,017
539,4	0,016
539,8	0,016
540,3	0,015
540,7	0,015
541,2	0,015
541,6	0,015
542,1	0,015
542,5	0,014
543	0,014
543,4	0,014
543,9	0,014
544,3	0,014
544,8	0,014
545,2	0,015
545,7	0,016
546,1	0,017
546,5	0,017
547	0,016
547,4	0,016
547,9	0,016
548,3	0,015
548,8	0,015
549,2	0,014
549,7	0,015
550,1	0,015
550,6	0,015
551	0,015
551,5	0,015
551,9	0,015
552,4	0,015
552,8	0,014
553,3	0,014
553,7	0,014
554,2	0,014
554,6	0,014
555,1	0,014
555,5	0,015
555,9	0,014
556,4	0,015
556,8	0,015
557,3	0,015
557,7	0,015
558,2	0,015
558,6	0,014
559,1	0,014
559,5	0,014
560	0,014
560,4	0,013
560,9	0,013
561,3	0,013
561,8	0,012
562,2	0,012
562,7	0,012
563,1	0,013
563,6	0,013
564	0,013
564,4	0,013
564,9	0,013
565,3	0,014
565,8	0,014
566,2	0,014
566,7	0,014
567,1	0,014
567,6	0,014
568	0,014
568,5	0,014
568,9	0,013
569,4	0,013
569,8	0,013
570,3	0,012
570,7	0,012
571,1	0,012
571,6	0,012
572	0,012
572,5	0,012
572,9	0,012
573,4	0,012
573,8	0,012
574,3	0,012
574,7	0,012
575,2	0,012
575,6	0,012
576,1	0,012
576,5	0,012
576,9	0,011
577,4	0,011
577,8	0,011
578,3	0,011
578,7	0,01
579,2	0,011
579,6	0,011
580,1	0,012
580,5	0,011
581	0,011
581,4	0,01
581,9	0,01
582,3	0,01
582,7	0,01
583,2	0,01
583,6	0,01
584,1	0,01
584,5	0,011
585	0,011
585,4	0,011
585,9	0,011
586,3	0,01
586,8	0,01
587,2	0,011
587,6	0,011
588,1	0,011
588,5	0,01
589	0,01
589,4	0,01
589,9	0,011
590,3	0,011
590,8	0,011
591,2	0,012
591,7	0,011
592,1	0,011
592,5	0,011
593	0,01
593,4	0,01
593,9	0,01
594,3	0,009
594,8	0,009
595,2	0,009
595,7	0,01
596,1	0,01
596,6	0,01
597	0,01
597,4	0,01
597,9	0,011
598,3	0,01
598,8	0,01
599,2	0,01
599,7	0,01
600,1	0,009
600,6	0,009
601	0,009
601,4	0,009
601,9	0,009
602,3	0,009
602,8	0,009
603,2	0,009
603,7	0,009
604,1	0,009
604,6	0,008
605	0,009
605,4	0,009
605,9	0,009
606,3	0,009
606,8	0,009
607,2	0,009
607,7	0,009
608,1	0,01
608,6	0,01
609	0,01
609,4	0,01
609,9	0,01
610,3	0,01
610,8	0,01
611,2	0,009
611,7	0,009
612,1	0,009
612,6	0,009
613	0,009
613,4	0,009
613,9	0,009
614,3	0,008
614,8	0,008
615,2	0,008
615,7	0,008
616,1	0,009
616,6	0,009
617	0,009
617,4	0,009
617,9	0,009
618,3	0,009
618,8	0,008
619,2	0,008
619,7	0,008
620,1	0,008
620,5	0,008
621	0,008
621,4	0,008
621,9	0,008
622,3	0,008
622,8	0,008
623,2	0,008
623,6	0,008
624,1	0,007
624,5	0,007
625	0,007
625,4	0,007
625,9	0,007
626,3	0,007
626,8	0,007
627,2	0,007
627,6	0,007
628,1	0,007
628,5	0,007
629	0,007
629,4	0,007
629,9	0,007
630,3	0,007
630,7	0,007
631,2	0,007
631,6	0,007
632,1	0,008
632,5	0,008
633	0,008
633,4	0,008
633,8	0,008
634,3	0,008
634,7	0,008
635,2	0,008
635,6	0,008
636,1	0,008
636,5	0,007
636,9	0,007
637,4	0,007
637,8	0,007
638,3	0,007
638,7	0,007
639,2	0,007
639,6	0,007
640	0,007
640,5	0,008
640,9	0,008
641,4	0,008
641,8	0,007
642,2	0,007
642,7	0,007
643,1	0,007
643,6	0,007
644	0,006
644,5	0,006
644,9	0,006
645,3	0,006
645,8	0,007
646,2	0,007
646,7	0,007
647,1	0,008
647,6	0,008
648	0,008
648,4	0,008
648,9	0,008
649,3	0,007
649,8	0,007
650,2	0,007
650,6	0,007
651,1	0,007
651,5	0,007
652	0,007
652,4	0,008
652,9	0,009
653,3	0,013
653,7	0,021
654,2	0,015
654,6	0,011
655,1	0,009
655,5	0,006
655,9	0,006
656,4	0,005
656,8	-0
657,3	-0
657,7	0
658,2	0,001
658,6	0,007
659	0,007
659,5	0,006
659,9	0,006
660,4	0,007
660,8	0,007
661,2	0,007
661,7	0,007
662,1	0,007
662,6	0,007
663	0,007
663,4	0,007
663,9	0,007
664,3	0,007
664,8	0,006
665,2	0,006
665,6	0,006
666,1	0,006
666,5	0,006
667	0,006
667,4	0,006
667,9	0,006
668,3	0,006
668,7	0,006
669,2	0,006
669,6	0,006
670,1	0,007
670,5	0,007
670,9	0,007
671,4	0,007
671,8	0,007
672,3	0,006
672,7	0,006
673,1	0,006
673,6	0,005
674	0,005
674,5	0,006
674,9	0,006
675,3	0,006
675,8	0,006
676,2	0,006
676,7	0,006
677,1	0,007
677,5	0,006
678	0,006
678,4	0,006
678,9	0,006
679,3	0,006
679,7	0,006
680,2	0,005
680,6	0,005
681,1	0,006
681,5	0,006
681,9	0,006
682,4	0,006
682,8	0,006
683,3	0,006
683,7	0,006
684,1	0,006
684,6	0,006
685	0,006
685,5	0,005
685,9	0,005
686,3	0,005
686,8	0,005
687,2	0,005
687,7	0,006
688,1	0,006
688,5	0,007
689	0,007
689,4	0,007
689,9	0,008
690,3	0,008
690,7	0,007
691,2	0,007
691,6	0,007
692	0,007
692,5	0,006
692,9	0,006
693,4	0,006
693,8	0,005
694,2	0,005
694,7	0,006
695,1	0,006
695,6	0,006
696	0,007
696,4	0,006
696,9	0,006
697,3	0,006
697,8	0,006
698,2	0,006
698,6	0,005
699,1	0,005
699,5	0,005
699,9	0,005
700,4	0,005
700,8	0,005
701,3	0,005
701,7	0,005
702,1	0,005
702,6	0,005
703	0,005
703,5	0,005
703,9	0,005
704,3	0,005
704,8	0,006
705,2	0,006
705,6	0,006
706,1	0,006
706,5	0,006
707	0,006
707,4	0,006
707,8	0,006
708,3	0,005
708,7	0,005
709,2	0,005
709,6	0,005
710	0,005
710,5	0,005
710,9	0,005
711,3	0,005
711,8	0,005
712,2	0,005
712,7	0,005
713,1	0,005
713,5	0,005
714	0,005
714,4	0,005
714,8	0,005
715,3	0,004
715,7	0,004
716,2	0,005
716,6	0,005
717	0,005
717,5	0,006
717,9	0,006
718,3	0,006
718,8	0,006
719,2	0,006
719,7	0,005
720,1	0,006
720,5	0,005
721	0,005
721,4	0,006
721,8	0,006
722,3	0,006
722,7	0,006
723,2	0,006
723,6	0,006
724	0,006
724,5	0,007
724,9	0,006
725,3	0,006
725,8	0,006
726,2	0,006
726,7	0,006
727,1	0,006
727,5	0,006
728	0,006
728,4	0,006
728,8	0,006
729,3	0,006
729,7	0,005
730,1	0,005
730,6	0,005
731	0,005
731,5	0,005
731,9	0,005
732,3	0,005
732,8	0,005
733,2	0,005
733,6	0,005
734,1	0,004
734,5	0,004
734,9	0,004
735,4	0,004
735,8	0,004
736,3	0,004
736,7	0,005
737,1	0,005
737,6	0,005
738	0,005
738,4	0,004
738,9	0,004
739,3	0,004
739,7	0,004
740,2	0,003
740,6	0,003
741,1	0,003
741,5	0,004
741,9	0,004
742,4	0,004
742,8	0,004
743,2	0,005
743,7	0,005
744,1	0,005
744,5	0,005
745	0,005
745,4	0,005
745,8	0,004
746,3	0,004
746,7	0,004
747,2	0,005
747,6	0,005
748	0,006
748,5	0,006
748,9	0,006
749,3	0,006
749,8	0,006
750,2	0,006
750,6	0,006
751,1	0,005
751,5	0,005
751,9	0,005
752,4	0,005
752,8	0,004
753,3	0,004
753,7	0,004
754,1	0,004
754,6	0,005
755	0,005
755,4	0,005
755,9	0,005
756,3	0,006
756,7	0,006
757,2	0,006
757,6	0,005
758	0,005
758,5	0,005
758,9	0,005
759,3	0,004
759,8	0,004
760,2	0,004
760,6	0,004
761,1	0,004
761,5	0,004
761,9	0,004
762,4	0,004
762,8	0,005
763,3	0,005
763,7	0,005
764,1	0,005
764,6	0,005
765	0,005
765,4	0,005
765,9	0,005
766,3	0,005
766,7	0,005
767,2	0,006
767,6	0,006
768	0,007
768,5	0,006
768,9	0,006
769,3	0,006
769,8	0,006
770,2	0,005
770,6	0,005
771,1	0,005
771,5	0,005
771,9	0,005
772,4	0,004
772,8	0,004
773,2	0,005
773,7	0,004
774,1	0,004
774,5	0,004
775	0,004
775,4	0,004
775,8	0,004
776,3	0,004
776,7	0,004
777,1	0,004
777,6	0,004
778	0,005
778,4	0,004
778,9	0,004
779,3	0,004
779,7	0,004
780,2	0,004
780,6	0,004
781	0,004
781,5	0,004
781,9	0,005
782,3	0,005
782,8	0,005
783,2	0,005
783,6	0,005
784,1	0,005
784,5	0,006
784,9	0,005
785,4	0,005
785,8	0,006
786,2	0,006
786,7	0,006
787,1	0,005
787,5	0,005
788	0,005
788,4	0,004
788,8	0,004
789,3	0,004
789,7	0,004
790,1	0,004
790,6	0,004
791	0,004
791,4	0,005
791,9	0,005
792,3	0,006
792,7	0,005
793,2	0,005
793,6	0,005
794	0,005
794,5	0,005
794,9	0,005
795,3	0,005
795,8	0,005
796,2	0,005
796,6	0,005
797,1	0,005
797,5	0,005
797,9	0,005
798,4	0,005
798,8	0,004
799,2	0,004
799,7	0,004
800,1	0,004
800,5	0,004
801	0,004
801,4	0,004
801,8	0,004
802,2	0,004
802,7	0,004
803,1	0,004
803,5	0,004
804	0,004
804,4	0,004
804,8	0,004
805,3	0,005
805,7	0,005
806,1	0,005
806,6	0,005
807	0,005
807,4	0,004
807,9	0,004
808,3	0,004
808,7	0,005
809,2	0,005
809,6	0,005
810	0,005
810,4	0,005
810,9	0,005
811,3	0,004
811,7	0,005
812,2	0,004
812,6	0,004
813	0,004
813,5	0,004
813,9	0,005
814,3	0,005
814,8	0,005
815,2	0,005
815,6	0,005
816,1	0,006
816,5	0,006
816,9	0,005
817,3	0,005
817,8	0,005
818,2	0,005
818,6	0,005
819,1	0,005
819,5	0,005
819,9	0,005
820,4	0,005
820,8	0,005
821,2	0,005
821,7	0,005
822,1	0,004
822,5	0,004
822,9	0,004
823,4	0,004
823,8	0,004
824,2	0,004
824,7	0,004
825,1	0,003
825,5	0,004
826	0,004
826,4	0,004
826,8	0,004
827,3	0,004
827,7	0,005
828,1	0,005
828,5	0,005
829	0,005
829,4	0,005
829,8	0,005
830,3	0,005
830,7	0,005
831,1	0,005
831,6	0,005
832	0,004
832,4	0,004
832,8	0,004
833,3	0,004
833,7	0,005
834,1	0,004
834,6	0,005
835	0,005
835,4	0,005
835,8	0,005
836,3	0,005
836,7	0,005
837,1	0,005
837,6	0,004
838	0,004
838,4	0,003
838,9	0,003
839,3	0,003
839,7	0,003
840,1	0,003
840,6	0,004
841	0,004
841,4	0,005
841,9	0,005
842,3	0,005
842,7	0,006
843,1	0,006
843,6	0,006
844	0,006
844,4	0,005
844,9	0,005
845,3	0,006
845,7	0,005
846,2	0,005
846,6	0,005
847	0,005
847,4	0,005
847,9	0,005
848,3	0,005
848,7	0,006
849,2	0,006
849,6	0,006
850	0,006
850,4	0,006
850,9	0,006
851,3	0,005
851,7	0,005
852,2	0,004
852,6	0,004
853	0,004
853,4	0,004
853,9	0,004
854,3	0,004
854,7	0,004
855,2	0,004
855,6	0,004
856	0,004
856,4	0,004
856,9	0,004
857,3	0,004
857,7	0,004
858,2	0,004
858,6	0,004
859	0,004
859,4	0,004
859,9	0,004
860,3	0,005
860,7	0,005
861,1	0,005
861,6	0,005
862	0,006
862,4	0,006
862,9	0,006
863,3	0,006
863,7	0,006
864,1	0,006
864,6	0,005
865	0,005
865,4	0,005
865,9	0,005
866,3	0,006
866,7	0,005
867,1	0,005
867,6	0,005
868	0,005
868,4	0,005
868,8	0,005
869,3	0,005
869,7	0,005
870,1	0,004
870,6	0,004
871	0,004
871,4	0,004
871,8	0,004
872,3	0,004
872,7	0,004
873,1	0,004
873,5	0,005
874	0,005
874,4	0,005
874,8	0,005
875,3	0,005
875,7	0,005
876,1	0,005
876,5	0,005
877	0,005
877,4	0,005
877,8	0,005
878,2	0,004
878,7	0,004
879,1	0,004
879,5	0,004
879,9	0,004
880,4	0,004
880,8	0,004
881,2	0,004
881,7	0,005
882,1	0,005
882,5	0,005
882,9	0,005
883,4	0,005
883,8	0,005
884,2	0,005
884,6	0,005
885,1	0,005
885,5	0,004
885,9	0,004
886,3	0,004
886,8	0,004
887,2	0,004
887,6	0,004
888	0,004
888,5	0,004
888,9	0,003
889,3	0,003
889,8	0,003
890,2	0,003
890,6	0,003
891	0,004
891,5	0,004
891,9	0,004
892,3	0,004
892,7	0,004
893,2	0,005
893,6	0,005
894	0,005
894,4	0,005
894,9	0,005
895,3	0,005
895,7	0,005
896,1	0,005
896,6	0,005
897	0,005
897,4	0,005
897,8	0,005
898,3	0,005
898,7	0,005
899,1	0,005
899,5	0,005
900	0,005
900,4	0,005
900,8	0,005
901,2	0,005
901,7	0,005
902,1	0,005
902,5	0,004
902,9	0,005
903,4	0,005
903,8	0,005
904,2	0,004
904,6	0,004
905,1	0,004
905,5	0,004
905,9	0,004
906,3	0,004
906,8	0,004
907,2	0,004
907,6	0,004
908	0,004
908,5	0,004
908,9	0,004
909,3	0,004
909,7	0,004
910,2	0,004
910,6	0,004
911	0,004
911,4	0,003
911,9	0,004
912,3	0,004
912,7	0,004
913,1	0,004
913,6	0,004
914	0,004
914,4	0,004
914,8	0,004
915,3	0,004
915,7	0,005
916,1	0,005
916,5	0,005
916,9	0,005
917,4	0,005
917,8	0,004
918,2	0,004
918,6	0,004
919,1	0,004
919,5	0,004
919,9	0,004
920,3	0,004
920,8	0,004
921,2	0,004
921,6	0,004
922	0,004
922,5	0,004
922,9	0,004
923,3	0,004
923,7	0,004
924,2	0,005
924,6	0,005
925	0,005
925,4	0,005
925,8	0,005
926,3	0,005
926,7	0,005
927,1	0,004
927,5	0,004
928	0,004
928,4	0,003
928,8	0,003
929,2	0,003
929,7	0,003
930,1	0,003
930,5	0,003
930,9	0,003
931,3	0,004
931,8	0,004
932,2	0,003
932,6	0,003
933	0,003
933,5	0,003
933,9	0,002
934,3	0,003
934,7	0,003
935,2	0,003
935,6	0,003
936	0,004
936,4	0,004
936,8	0,004
937,3	0,004
937,7	0,004
938,1	0,003
938,5	0,003
939	0,002
939,4	0,002
939,8	0,002
940,2	0,003
940,6	0,003
941,1	0,003
941,5	0,003
941,9	0,003
942,3	0,002
942,8	0,002
943,2	0,001
943,6	0,002
944	0,002
944,4	0,003
944,9	0,004
945,3	0,004
945,7	0,005
946,1	0,006
946,6	0,006
947	0,006
947,4	0,006
947,8	0,006
948,2	0,007
948,7	0,007
949,1	0,006
949,5	0,006
949,9	0,006
950,3	0,005
950,8	0,005
951,2	0,005
951,6	0,005
952	0,005
952,5	0,005
952,9	0,005
953,3	0,005
953,7	0,005
954,1	0,005
954,6	0,005
955	0,004
955,4	0,004
955,8	0,004
956,2	0,004
956,7	0,004
957,1	0,004
957,5	0,004
957,9	0,004
958,3	0,004
958,8	0,004
959,2	0,003
959,6	0,003
960	0,003
960,5	0,004
960,9	0,003
961,3	0,003
961,7	0,003
962,1	0,004
962,6	0,004
963	0,004
963,4	0,004
963,8	0,004
964,2	0,004
964,7	0,004
965,1	0,005
965,5	0,004
965,9	0,004
966,3	0,004
966,8	0,004
967,2	0,004
967,6	0,004
968	0,003
968,4	0,004
968,9	0,004
969,3	0,003
969,7	0,004
970,1	0,004
970,5	0,004
971	0,004
971,4	0,004
971,8	0,004
972,2	0,005
972,6	0,004
973,1	0,005
973,5	0,005
973,9	0,005
974,3	0,005
974,7	0,005
975,2	0,004
975,6	0,004
976	0,004
976,4	0,004
976,8	0,005
977,3	0,005
977,7	0,005
978,1	0,005
978,5	0,005
978,9	0,005
979,4	0,005
979,8	0,005
980,2	0,005
980,6	0,005
981	0,005
981,5	0,006
981,9	0,005
982,3	0,005
982,7	0,004
983,1	0,004
983,6	0,004
984	0,004
984,4	0,005
984,8	0,005
985,2	0,005
985,6	0,005
986,1	0,005
986,5	0,005
986,9	0,005
987,3	0,005
987,7	0,005
988,2	0,005
988,6	0,005
989	0,005
989,4	0,005
989,8	0,006
990,3	0,005
990,7	0,005
991,1	0,006
991,5	0,006
991,9	0,006
992,3	0,007
992,8	0,006
993,2	0,006
993,6	0,006
994	0,006
994,4	0,006
994,9	0,006
995,3	0,006
995,7	0,005
996,1	0,005
996,5	0,005
996,9	0,006
997,4	0,006
997,8	0,006
998,2	0,006
998,6	0,006
999	0,007
999,5	0,007
999,9	0,007
1000,3	0,007
1000,7	0,007
1001,1	0,007
1001,5	0,007
1002	0,007
1002,4	0,007
1002,8	0,007
1003,2	0,006
1003,6	0,006
1004	0,007
1004,5	0,006
1004,9	0,005
1005,3	0,005
1005,7	0,006
1006,1	0,006
1006,6	0,006
1007	0,007
1007,4	0,006
1007,8	0,007
1008,2	0,006
1008,6	0,006
1009,1	0,005
1009,5	0,004
1009,9	0,004
1010,3	0,004
1010,7	0,004
1011,1	0,004
1011,6	0,004
1012	0,005
1012,4	0,005
1012,8	0,006
1013,2	0,007
1013,6	0,007
1014,1	0,007
1014,5	0,006
1014,9	0,006
1015,3	0,006
1015,7	0,006
1016,1	0,005
1016,6	0,004
1017	0,005
1017,4	0,006
1017,8	0,006
1018,2	0,006
1018,6	0,006
1019,1	0,007
1019,5	0,007
1019,9	0,006
1020,3	0,006
1020,7	0,006
1021,1	0,006
1021,6	0,007
1022	0,007
1022,4	0,007
1022,8	0,008
1023,2	0,008
1023,6	0,008
1024,1	0,007
1024,5	0,007
1024,9	0,006
1025,3	0,006
1025,7	0,006
1026,1	0,006
1026,6	0,007
1027	0,007
1027,4	0,007
1027,8	0,008
1028,2	0,009
1028,6	0,008
1029	0,009
1029,5	0,009
1029,9	0,01
1030,3	0,01
1030,7	0,009
1031,1	0,009
1031,5	0,01
1032	0,01
1032,4	0,009
1032,8	0,01
1033,2	0,01
1033,6	0,01
1034	0,01
1034,4	0,01
1034,9	0,01
1035,3	0,009
1035,7	0,009
1036,1	0,008
1036,5	0,009
1036,9	0,009
1037,4	0,009
1037,8	0,009
1038,2	0,009
1038,6	0,01
1039	0,01
1039,4	0,009
1039,8	0,009
1040,3	0,01
1040,7	0,009
1041,1	0,009
1041,5	0,009
1041,9	0,009
1042,3	0,01
1042,7	0,009
1043,2	0,009
1043,6	0,008
1044	0,009
1044,4	0,009
1044,8	0,009
1045,2	0,008
1045,6	0,008
1046,1	0,008
1046,5	0,008
1046,9	0,008
1047,3	0,008
1047,7	0,008
1048,1	0,008
1048,5	0,009
1049	0,009
1049,4	0,009
1049,8	0,009
1050,2	0,009
1050,6	0,008
1051	0,009
1051,4	0,008
1051,9	0,008
1052,3	0,008
1052,7	0,009
1053,1	0,009
1053,5	0,009
1053,9	0,008
1054,3	0,008
1054,8	0,007
1055,2	0,007
1055,6	0,007
1056	0,008
1056,4	0,008
1056,8	0,008
1057,2	0,009
1057,6	0,009
1058,1	0,008
1058,5	0,009
1058,9	0,008
1059,3	0,008
1059,7	0,008
1060,1	0,009
1060,5	0,009
1061	0,01
1061,4	0,009
1061,8	0,01
1062,2	0,01
1062,6	0,01
1063	0,009
1063,4	0,009
1063,8	0,01
1064,3	0,01
1064,7	0,009
1065,1	0,009
1065,5	0,009
1065,9	0,01
1066,3	0,01
1066,7	0,01
1067,1	0,01
1067,6	0,009
1068	0,009
1068,4	0,008
1068,8	0,008
1069,2	0,009
1069,6	0,008
1070	0,009
1070,4	0,011
1070,9	0,01
1071,3	0,01
1071,7	0,01
1072,1	0,01
1072,5	0,011
1072,9	0,012
1073,3	0,011
1073,7	0,012
1074,2	0,013
1074,6	0,013
1075	0,014
1075,4	0,013
1075,8	0,013
1076,2	0,012
1076,6	0,012
1077	0,011
1077,5	0,011
1077,9	0,01
1078,3	0,01
1078,7	0,009
1079,1	0,01
1079,5	0,009
1079,9	0,008
1080,3	0,009
1080,7	0,01
1081,2	0,011
1081,6	0,012
1082	0,013
1082,4	0,014
1082,8	0,015
1083,2	0,014
1083,6	0,013
1084	0,015
1084,5	0,016
1084,9	0,013
1085,3	0,014
1085,7	0,014
1086,1	0,014
1086,5	0,015
1086,9	0,015
1087,3	0,016
1087,7	0,018
1088,2	0,018
1088,6	0,019
1089	0,02
1089,4	0,018
1089,8	0,016
1090,2	0,016
1090,6	0,017
1091	0,019
1091,4	0,019
1091,9	0,019
1092,3	0,019
1092,7	0,022
1093,1	0,023
1093,5	0,024
1093,9	0,022
1094,3	0,024
1094,7	0,022
1095,1	0,029
1095,5	0,031
1096	0,037
1096,4	0,034
1096,8	0,033
1097,2	0,032
1097,6	0,036
1098	0,035
1098,4	0,034
1098,8	0,028
1099,2	0,032
1099,6	0,035
1100,1	0,033
1100,5	0,035
1100,9	0,031
1101,3	0,034
1101,7	0,047
1102,1	0,054
1102,5	0,065
1102,9	0,081
1103,3	0,089
1103,7	0,088
1104,2	0,085
1104,6	0,076
1105	0,069
1105,4	0,061
1105,8	0,052
1106,2	0,044
1106,6	0,057
1107	0,056
1107,4	0,056
1107,8	0,077
1108,3	-0
