Data from Absorbance_208.txt Node
Date: Fri Nov 13 21:05:09 MSK 2020
User: vat
Spectrometer: MAYP114033
Trigger mode: 0
Integration Time (sec): 8,000000E-3
Scans to average: 10
Electric dark correction enabled: true
Nonlinearity correction enabled: false
Boxcar width: 3
XAxis mode: Wavelengths
Number of Pixels in Spectrum: 2068
>>>>>Begin Spectral Data<<<<<
199,4	-0
199,9	0,027
200,4	0,073
200,8	0,059
201,3	0,058
201,8	0,07
202,2	0,079
202,7	0,098
203,2	0,079
203,6	0,071
204,1	0,074
204,6	0,075
205	0,074
205,5	0,08
206	0,072
206,4	0,071
206,9	0,073
207,4	0,075
207,8	0,081
208,3	0,086
208,8	0,088
209,2	0,091
209,7	0,086
210,2	0,086
210,6	0,094
211,1	0,085
211,5	0,094
212	0,077
212,5	0,066
212,9	0,079
213,4	0,084
213,9	0,079
214,3	0,084
214,8	0,078
215,3	0,076
215,7	0,076
216,2	0,069
216,7	0,068
217,1	0,08
217,6	0,097
218,1	0,104
218,5	0,119
219	0,14
219,5	0,165
219,9	0,184
220,4	0,16
220,9	0,142
221,3	0,124
221,8	0,12
222,3	0,11
222,7	0,082
223,2	0,077
223,6	0,096
224,1	0,107
224,6	0,108
225	0,102
225,5	0,089
226	0,092
226,4	0,083
226,9	0,066
227,4	0,07
227,8	0,075
228,3	0,087
228,8	0,095
229,2	0,112
229,7	0,116
230,2	0,117
230,6	0,108
231,1	0,124
231,5	0,125
232	0,138
232,5	0,13
232,9	0,142
233,4	0,152
233,9	0,15
234,3	0,142
234,8	0,134
235,3	0,13
235,7	0,136
236,2	0,12
236,7	0,124
237,1	0,132
237,6	0,122
238,1	0,14
238,5	0,129
239	0,127
239,4	0,134
239,9	0,129
240,4	0,127
240,8	0,137
241,3	0,138
241,8	0,161
242,2	0,173
242,7	0,18
243,2	0,198
243,6	0,2
244,1	0,21
244,6	0,214
245	0,213
245,5	0,22
245,9	0,231
246,4	0,225
246,9	0,239
247,3	0,253
247,8	0,264
248,3	0,277
248,7	0,29
249,2	0,291
249,7	0,3
250,1	0,302
250,6	0,307
251	0,312
251,5	0,313
252	0,312
252,4	0,319
252,9	0,326
253,4	0,329
253,8	0,333
254,3	0,338
254,8	0,341
255,2	0,35
255,7	0,355
256,1	0,364
256,6	0,371
257,1	0,379
257,5	0,387
258	0,396
258,5	0,405
258,9	0,415
259,4	0,425
259,9	0,435
260,3	0,444
260,8	0,455
261,2	0,467
261,7	0,479
262,2	0,491
262,6	0,502
263,1	0,516
263,6	0,53
264	0,543
264,5	0,556
264,9	0,569
265,4	0,581
265,9	0,594
266,3	0,605
266,8	0,617
267,3	0,63
267,7	0,642
268,2	0,654
268,7	0,666
269,1	0,679
269,6	0,691
270	0,705
270,5	0,718
271	0,73
271,4	0,742
271,9	0,755
272,4	0,766
272,8	0,778
273,3	0,79
273,7	0,801
274,2	0,812
274,7	0,823
275,1	0,833
275,6	0,843
276,1	0,852
276,5	0,859
277	0,868
277,4	0,875
277,9	0,883
278,4	0,891
278,8	0,898
279,3	0,904
279,8	0,907
280,2	0,91
280,7	0,914
281,1	0,917
281,6	0,918
282,1	0,92
282,5	0,92
283	0,921
283,4	0,92
283,9	0,919
284,4	0,915
284,8	0,912
285,3	0,906
285,8	0,901
286,2	0,895
286,7	0,888
287,1	0,881
287,6	0,873
288,1	0,863
288,5	0,854
289	0,843
289,5	0,831
289,9	0,82
290,4	0,806
290,8	0,792
291,3	0,778
291,8	0,763
292,2	0,749
292,7	0,734
293,1	0,717
293,6	0,702
294,1	0,684
294,5	0,667
295	0,649
295,5	0,632
295,9	0,614
296,4	0,596
296,8	0,577
297,3	0,56
297,8	0,542
298,2	0,524
298,7	0,506
299,1	0,488
299,6	0,47
300,1	0,453
300,5	0,435
301	0,418
301,5	0,401
301,9	0,385
302,4	0,369
302,8	0,353
303,3	0,338
303,8	0,323
304,2	0,309
304,7	0,296
305,1	0,282
305,6	0,27
306,1	0,258
306,5	0,246
307	0,234
307,4	0,224
307,9	0,213
308,4	0,203
308,8	0,194
309,3	0,185
309,8	0,176
310,2	0,168
310,7	0,16
311,1	0,153
311,6	0,147
312,1	0,14
312,5	0,134
313	0,128
313,4	0,122
313,9	0,117
314,4	0,112
314,8	0,107
315,3	0,102
315,7	0,098
316,2	0,094
316,7	0,091
317,1	0,087
317,6	0,084
318	0,081
318,5	0,078
319	0,076
319,4	0,074
319,9	0,072
320,3	0,07
320,8	0,067
321,3	0,066
321,7	0,064
322,2	0,063
322,6	0,062
323,1	0,06
323,6	0,06
324	0,059
324,5	0,058
324,9	0,057
325,4	0,056
325,9	0,055
326,3	0,054
326,8	0,053
327,2	0,052
327,7	0,051
328,2	0,05
328,6	0,05
329,1	0,049
329,5	0,048
330	0,048
330,5	0,048
330,9	0,048
331,4	0,047
331,8	0,047
332,3	0,046
332,8	0,046
333,2	0,046
333,7	0,045
334,1	0,045
334,6	0,044
335,1	0,044
335,5	0,044
336	0,043
336,4	0,044
336,9	0,043
337,4	0,043
337,8	0,042
338,3	0,042
338,7	0,042
339,2	0,041
339,7	0,041
340,1	0,041
340,6	0,041
341	0,041
341,5	0,04
342	0,04
342,4	0,04
342,9	0,039
343,3	0,039
343,8	0,039
344,2	0,039
344,7	0,038
345,2	0,038
345,6	0,038
346,1	0,038
346,5	0,038
347	0,038
347,5	0,038
347,9	0,038
348,4	0,038
348,8	0,038
349,3	0,038
349,8	0,038
350,2	0,038
350,7	0,037
351,1	0,037
351,6	0,037
352	0,036
352,5	0,036
353	0,035
353,4	0,035
353,9	0,035
354,3	0,035
354,8	0,035
355,3	0,035
355,7	0,034
356,2	0,034
356,6	0,034
357,1	0,034
357,5	0,033
358	0,033
358,5	0,033
358,9	0,033
359,4	0,033
359,8	0,034
360,3	0,034
360,8	0,034
361,2	0,034
361,7	0,034
362,1	0,034
362,6	0,033
363	0,033
363,5	0,033
364	0,032
364,4	0,032
364,9	0,031
365,3	0,031
365,8	0,031
366,3	0,031
366,7	0,031
367,2	0,031
367,6	0,031
368,1	0,031
368,5	0,031
369	0,031
369,5	0,03
369,9	0,03
370,4	0,029
370,8	0,029
371,3	0,029
371,7	0,028
372,2	0,028
372,7	0,028
373,1	0,028
373,6	0,028
374	0,028
374,5	0,027
374,9	0,028
375,4	0,027
375,9	0,027
376,3	0,026
376,8	0,026
377,2	0,026
377,7	0,025
378,2	0,025
378,6	0,025
379,1	0,025
379,5	0,026
380	0,026
380,4	0,026
380,9	0,026
381,4	0,026
381,8	0,026
382,3	0,025
382,7	0,025
383,2	0,025
383,6	0,025
384,1	0,025
384,6	0,025
385	0,025
385,5	0,024
385,9	0,024
386,4	0,023
386,8	0,023
387,3	0,023
387,7	0,022
388,2	0,022
388,7	0,022
389,1	0,022
389,6	0,022
390	0,022
390,5	0,022
390,9	0,022
391,4	0,022
391,9	0,022
392,3	0,022
392,8	0,022
393,2	0,022
393,7	0,022
394,1	0,022
394,6	0,022
395,1	0,022
395,5	0,022
396	0,021
396,4	0,021
396,9	0,021
397,3	0,021
397,8	0,021
398,2	0,021
398,7	0,021
399,2	0,021
399,6	0,021
400,1	0,02
400,5	0,02
401	0,02
401,4	0,02
401,9	0,02
402,4	0,021
402,8	0,021
403,3	0,021
403,7	0,021
404,2	0,021
404,6	0,021
405,1	0,021
405,5	0,02
406	0,02
406,5	0,02
406,9	0,02
407,4	0,021
407,8	0,02
408,3	0,02
408,7	0,019
409,2	0,019
409,6	0,019
410,1	0,019
410,6	0,019
411	0,019
411,5	0,02
411,9	0,019
412,4	0,019
412,8	0,019
413,3	0,019
413,7	0,018
414,2	0,019
414,7	0,018
415,1	0,018
415,6	0,018
416	0,018
416,5	0,018
416,9	0,018
417,4	0,018
417,8	0,018
418,3	0,019
418,8	0,019
419,2	0,019
419,7	0,018
420,1	0,018
420,6	0,018
421	0,018
421,5	0,018
421,9	0,018
422,4	0,018
422,8	0,018
423,3	0,019
423,8	0,018
424,2	0,019
424,7	0,018
425,1	0,018
425,6	0,018
426	0,018
426,5	0,018
426,9	0,017
427,4	0,017
427,9	0,017
428,3	0,017
428,8	0,017
429,2	0,017
429,7	0,016
430,1	0,016
430,6	0,016
431	0,016
431,5	0,015
431,9	0,015
432,4	0,016
432,8	0,015
433,3	0,015
433,8	0,015
434,2	0,015
434,7	0,015
435,1	0,015
435,6	0,015
436	0,015
436,5	0,016
436,9	0,016
437,4	0,017
437,8	0,016
438,3	0,017
438,8	0,016
439,2	0,016
439,7	0,015
440,1	0,015
440,6	0,014
441	0,014
441,5	0,015
441,9	0,014
442,4	0,014
442,8	0,014
443,3	0,015
443,7	0,015
444,2	0,015
444,7	0,015
445,1	0,016
445,6	0,015
446	0,015
446,5	0,015
446,9	0,015
447,4	0,015
447,8	0,015
448,3	0,014
448,7	0,014
449,2	0,014
449,6	0,014
450,1	0,014
450,6	0,014
451	0,015
451,5	0,015
451,9	0,015
452,4	0,015
452,8	0,014
453,3	0,014
453,7	0,014
454,2	0,013
454,6	0,013
455,1	0,013
455,5	0,013
456	0,013
456,4	0,013
456,9	0,013
457,3	0,013
457,8	0,013
458,3	0,013
458,7	0,013
459,2	0,013
459,6	0,013
460,1	0,013
460,5	0,013
461	0,014
461,4	0,014
461,9	0,014
462,3	0,014
462,8	0,013
463,2	0,013
463,7	0,013
464,1	0,013
464,6	0,012
465	0,012
465,5	0,012
466	0,012
466,4	0,012
466,9	0,012
467,3	0,012
467,8	0,012
468,2	0,012
468,7	0,012
469,1	0,013
469,6	0,013
470	0,012
470,5	0,012
470,9	0,012
471,4	0,011
471,8	0,012
472,3	0,012
472,7	0,012
473,2	0,012
473,6	0,012
474,1	0,013
474,5	0,013
475	0,013
475,4	0,012
475,9	0,013
476,4	0,012
476,8	0,012
477,3	0,012
477,7	0,012
478,2	0,011
478,6	0,012
479,1	0,012
479,5	0,012
480	0,012
480,4	0,012
480,9	0,012
481,3	0,012
481,8	0,012
482,2	0,012
482,7	0,012
483,1	0,012
483,6	0,012
484	0,013
484,5	0,012
484,9	0,012
485,4	0,012
485,8	0,012
486,3	0,012
486,7	0,011
487,2	0,011
487,6	0,011
488,1	0,011
488,5	0,011
489	0,011
489,4	0,011
489,9	0,011
490,4	0,011
490,8	0,01
491,3	0,01
491,7	0,01
492,2	0,01
492,6	0,009
493,1	0,01
493,5	0,009
494	0,01
494,4	0,01
494,9	0,01
495,3	0,011
495,8	0,011
496,2	0,011
496,7	0,011
497,1	0,011
497,6	0,011
498	0,011
498,5	0,011
498,9	0,01
499,4	0,01
499,8	0,011
500,3	0,01
500,7	0,01
501,2	0,01
501,6	0,01
502,1	0,01
502,5	0,01
503	0,01
503,4	0,01
503,9	0,01
504,3	0,01
504,8	0,009
505,2	0,009
505,7	0,009
506,1	0,009
506,6	0,009
507	0,009
507,5	0,009
507,9	0,01
508,4	0,01
508,8	0,01
509,3	0,01
509,7	0,01
510,2	0,01
510,6	0,01
511,1	0,009
511,5	0,009
512	0,009
512,4	0,01
512,9	0,009
513,3	0,009
513,8	0,009
514,2	0,009
514,7	0,009
515,1	0,009
515,6	0,009
516	0,009
516,5	0,009
516,9	0,008
517,4	0,008
517,8	0,009
518,3	0,008
518,7	0,009
519,2	0,008
519,6	0,009
520,1	0,009
520,5	0,009
521	0,009
521,4	0,009
521,9	0,009
522,3	0,009
522,8	0,009
523,2	0,009
523,7	0,009
524,1	0,009
524,6	0,01
525	0,009
525,5	0,009
525,9	0,009
526,4	0,008
526,8	0,008
527,3	0,009
527,7	0,009
528,2	0,009
528,6	0,008
529,1	0,009
529,5	0,009
530	0,01
530,4	0,009
530,9	0,009
531,3	0,009
531,8	0,008
532,2	0,008
532,6	0,007
533,1	0,008
533,5	0,007
534	0,008
534,4	0,008
534,9	0,008
535,3	0,008
535,8	0,008
536,2	0,008
536,7	0,008
537,1	0,007
537,6	0,007
538	0,007
538,5	0,007
538,9	0,007
539,4	0,007
539,8	0,007
540,3	0,006
540,7	0,007
541,2	0,007
541,6	0,007
542,1	0,007
542,5	0,007
543	0,007
543,4	0,007
543,9	0,007
544,3	0,006
544,8	0,006
545,2	0,006
545,7	0,006
546,1	0,006
546,5	0,006
547	0,007
547,4	0,006
547,9	0,006
548,3	0,006
548,8	0,006
549,2	0,006
549,7	0,006
550,1	0,006
550,6	0,006
551	0,006
551,5	0,006
551,9	0,006
552,4	0,006
552,8	0,006
553,3	0,006
553,7	0,006
554,2	0,006
554,6	0,007
555,1	0,006
555,5	0,006
555,9	0,006
556,4	0,006
556,8	0,006
557,3	0,006
557,7	0,005
558,2	0,006
558,6	0,005
559,1	0,005
559,5	0,005
560	0,005
560,4	0,005
560,9	0,005
561,3	0,005
561,8	0,005
562,2	0,005
562,7	0,005
563,1	0,005
563,6	0,005
564	0,005
564,4	0,005
564,9	0,005
565,3	0,005
565,8	0,005
566,2	0,005
566,7	0,005
567,1	0,005
567,6	0,006
568	0,005
568,5	0,005
568,9	0,005
569,4	0,005
569,8	0,005
570,3	0,005
570,7	0,004
571,1	0,004
571,6	0,004
572	0,004
572,5	0,004
572,9	0,004
573,4	0,004
573,8	0,004
574,3	0,004
574,7	0,004
575,2	0,004
575,6	0,004
576,1	0,004
576,5	0,005
576,9	0,004
577,4	0,004
577,8	0,005
578,3	0,005
578,7	0,005
579,2	0,005
579,6	0,005
580,1	0,005
580,5	0,005
581	0,005
581,4	0,004
581,9	0,004
582,3	0,004
582,7	0,003
583,2	0,003
583,6	0,003
584,1	0,003
584,5	0,003
585	0,003
585,4	0,003
585,9	0,003
586,3	0,003
586,8	0,003
587,2	0,003
587,6	0,003
588,1	0,003
588,5	0,003
589	0,003
589,4	0,003
589,9	0,004
590,3	0,004
590,8	0,004
591,2	0,004
591,7	0,004
592,1	0,004
592,5	0,004
593	0,003
593,4	0,003
593,9	0,004
594,3	0,004
594,8	0,003
595,2	0,003
595,7	0,003
596,1	0,003
596,6	0,003
597	0,003
597,4	0,003
597,9	0,003
598,3	0,003
598,8	0,003
599,2	0,003
599,7	0,003
600,1	0,002
600,6	0,002
601	0,002
601,4	0,002
601,9	0,003
602,3	0,002
602,8	0,002
603,2	0,002
603,7	0,002
604,1	0,002
604,6	0,003
605	0,002
605,4	0,003
605,9	0,003
606,3	0,003
606,8	0,003
607,2	0,003
607,7	0,003
608,1	0,003
608,6	0,003
609	0,003
609,4	0,003
609,9	0,003
610,3	0,003
610,8	0,003
611,2	0,003
611,7	0,003
612,1	0,003
612,6	0,003
613	0,003
613,4	0,003
613,9	0,003
614,3	0,003
614,8	0,002
615,2	0,002
615,7	0,002
616,1	0,002
616,6	0,002
617	0,002
617,4	0,002
617,9	0,003
618,3	0,003
618,8	0,003
619,2	0,003
619,7	0,002
620,1	0,003
620,5	0,003
621	0,002
621,4	0,002
621,9	0,002
622,3	0,002
622,8	0,001
623,2	0,001
623,6	0,001
624,1	0,001
624,5	0,002
625	0,002
625,4	0,002
625,9	0,002
626,3	0,003
626,8	0,003
627,2	0,002
627,6	0,002
628,1	0,002
628,5	0,002
629	0,002
629,4	0,002
629,9	0,002
630,3	0,002
630,7	0,002
631,2	0,002
631,6	0,002
632,1	0,002
632,5	0,002
633	0,002
633,4	0,002
633,8	0,002
634,3	0,002
634,7	0,002
635,2	0,002
635,6	0,002
636,1	0,001
636,5	0,001
636,9	0,001
637,4	0,001
637,8	0,001
638,3	0,002
638,7	0,002
639,2	0,001
639,6	0,001
640	0,001
640,5	0,001
640,9	0,001
641,4	0,001
641,8	0,001
642,2	0,002
642,7	0,002
643,1	0,002
643,6	0,002
644	0,002
644,5	0,002
644,9	0,001
645,3	0,001
645,8	0,001
646,2	0
646,7	0
647,1	0
647,6	0
648	0,001
648,4	0,001
648,9	0,002
649,3	0,002
649,8	0,002
650,2	0,002
650,6	0,002
651,1	0,002
651,5	0,002
652	0,002
652,4	0,002
652,9	0,002
653,3	0,003
653,7	0,005
654,2	0,004
654,6	0,003
655,1	0,002
655,5	0,001
655,9	0
656,4	0
656,8	-0,001
657,3	-0,001
657,7	-0,001
658,2	-0,002
658,6	0
659	0,001
659,5	0,001
659,9	0,002
660,4	0,002
660,8	0,001
661,2	0,001
661,7	0,001
662,1	0,001
662,6	0,001
663	0
663,4	0
663,9	0
664,3	0
664,8	0,001
665,2	0,001
665,6	0,001
666,1	0,001
666,5	0,001
667	0,001
667,4	0,001
667,9	0,001
668,3	0,001
668,7	0,002
669,2	0,002
669,6	0,001
670,1	0,002
670,5	0,002
670,9	0,002
671,4	0,002
671,8	0,001
672,3	0,001
672,7	0,001
673,1	0,001
673,6	0,001
674	0,001
674,5	0,001
674,9	0,001
675,3	0,001
675,8	0,002
676,2	0,002
676,7	0,002
677,1	0,001
677,5	0,002
678	0,002
678,4	0,002
678,9	0,002
679,3	0,002
679,7	0,002
680,2	0,003
680,6	0,002
681,1	0,003
681,5	0,002
681,9	0,002
682,4	0,002
682,8	0,001
683,3	0,001
683,7	0,001
684,1	0
684,6	0
685	0
685,5	0
685,9	0
686,3	0
686,8	0
687,2	0
687,7	0
688,1	0,001
688,5	0,001
689	0,001
689,4	0,001
689,9	0,001
690,3	0,001
690,7	0,002
691,2	0,001
691,6	0,002
692	0,002
692,5	0,002
692,9	0,001
693,4	0,001
693,8	0,001
694,2	0,001
694,7	0,001
695,1	0,001
695,6	0,001
696	0,001
696,4	0,001
696,9	0
697,3	0
697,8	-0
698,2	-0
698,6	-0
699,1	0
699,5	0
699,9	0
700,4	0,001
700,8	0,001
701,3	0,001
701,7	0,001
702,1	0,001
702,6	0,001
703	0,001
703,5	0,001
703,9	0,001
704,3	0,001
704,8	0,001
705,2	0,001
705,6	0,001
706,1	0,001
706,5	0,001
707	0,001
707,4	0,001
707,8	0,001
708,3	0,001
708,7	0,001
709,2	0,001
709,6	0,001
710	0,001
710,5	0,001
710,9	0,001
711,3	0,001
711,8	0,001
712,2	0,001
712,7	0,001
713,1	0,001
713,5	0,001
714	0,001
714,4	0,001
714,8	0,001
715,3	0,001
715,7	0,001
716,2	0,001
716,6	0,001
717	0,001
717,5	0,001
717,9	0,001
718,3	0,001
718,8	0,001
719,2	0
719,7	0
720,1	0
720,5	0
721	0
721,4	0
721,8	0
722,3	0,001
722,7	0
723,2	0,001
723,6	0,001
724	0,001
724,5	0,001
724,9	0,001
725,3	0,002
725,8	0,001
726,2	0,001
726,7	0,001
727,1	0,001
727,5	0,001
728	0,001
728,4	0,001
728,8	0,001
729,3	0,001
729,7	0,001
730,1	0
730,6	0
731	0
731,5	0,001
731,9	0,001
732,3	0,001
732,8	0,001
733,2	0,001
733,6	0,002
734,1	0,002
734,5	0,002
734,9	0,002
735,4	0,002
735,8	0,002
736,3	0,002
736,7	0,001
737,1	0,001
737,6	0,001
738	0,001
738,4	0
738,9	0
739,3	0,001
739,7	0,001
740,2	0
740,6	0
741,1	0
741,5	0
741,9	0
742,4	-0
742,8	-0
743,2	0
743,7	0
744,1	0
744,5	0
745	0,001
745,4	0,001
745,8	0,001
746,3	0,001
746,7	0,001
747,2	0,001
747,6	0,001
748	0,001
748,5	0,001
748,9	0,001
749,3	0,001
749,8	0,001
750,2	0,001
750,6	0
751,1	0
751,5	0
751,9	0,001
752,4	0,001
752,8	0,001
753,3	0
753,7	0,001
754,1	0,001
754,6	0
755	0
755,4	0
755,9	0,001
756,3	0,001
756,7	0,001
757,2	0,001
757,6	0,001
758	0,001
758,5	0,001
758,9	0,001
759,3	0,001
759,8	0,001
760,2	0,001
760,6	0,002
761,1	0,002
761,5	0,002
761,9	0,002
762,4	0,002
762,8	0,002
763,3	0,002
763,7	0,002
764,1	0,002
764,6	0,001
765	0,001
765,4	0,001
765,9	0
766,3	0
766,7	-0
767,2	0
767,6	-0
768	-0
768,5	0
768,9	0
769,3	0
769,8	0,001
770,2	0,001
770,6	0,001
771,1	0,001
771,5	0,002
771,9	0,002
772,4	0,002
772,8	0,002
773,2	0,002
773,7	0,003
774,1	0,003
774,5	0,003
775	0,003
775,4	0,003
775,8	0,003
776,3	0,003
776,7	0,003
777,1	0,003
777,6	0,002
778	0,002
778,4	0,002
778,9	0,002
779,3	0,002
779,7	0,002
780,2	0,002
780,6	0,003
781	0,003
781,5	0,003
781,9	0,003
782,3	0,003
782,8	0,003
783,2	0,003
783,6	0,003
784,1	0,003
784,5	0,003
784,9	0,003
785,4	0,002
785,8	0,002
786,2	0,002
786,7	0,002
787,1	0,001
787,5	0,001
788	0,001
788,4	0
788,8	0
789,3	0
789,7	0
790,1	0,001
790,6	0
791	0
791,4	0,001
791,9	0,001
792,3	0,001
792,7	0,001
793,2	0,001
793,6	0,001
794	0,001
794,5	0,001
794,9	0,001
795,3	0,001
795,8	0,001
796,2	0,002
796,6	0,002
797,1	0,002
797,5	0,003
797,9	0,002
798,4	0,002
798,8	0,003
799,2	0,002
799,7	0,002
800,1	0,002
800,5	0,002
801	0,002
801,4	0,002
801,8	0,002
802,2	0,002
802,7	0,002
803,1	0,002
803,5	0,002
804	0,002
804,4	0,002
804,8	0,002
805,3	0,001
805,7	0,001
806,1	0,001
806,6	0,001
807	0,001
807,4	0,001
807,9	0,001
808,3	0,002
808,7	0,002
809,2	0,002
809,6	0,002
810	0,002
810,4	0,002
810,9	0,001
811,3	0,001
811,7	0,001
812,2	0,001
812,6	0,001
813	0,001
813,5	0,001
813,9	0,001
814,3	0
814,8	0
815,2	-0
815,6	-0
816,1	-0
816,5	-0,001
816,9	-0,001
817,3	-0,001
817,8	-0,001
818,2	-0
818,6	-0
819,1	0
819,5	0
819,9	0,001
820,4	0,001
820,8	0,001
821,2	0,002
821,7	0,002
822,1	0,002
822,5	0,002
822,9	0,002
823,4	0,002
823,8	0,001
824,2	0,001
824,7	0,001
825,1	0,001
825,5	0
826	0,001
826,4	0,001
826,8	0
827,3	0
827,7	0,001
828,1	0,001
828,5	0,001
829	0,001
829,4	0,002
829,8	0,002
830,3	0,002
830,7	0,002
831,1	0,002
831,6	0,002
832	0,002
832,4	0,001
832,8	0,002
833,3	0,001
833,7	0,001
834,1	0,001
834,6	0,001
835	0,001
835,4	0,001
835,8	0,001
836,3	0,001
836,7	0,001
837,1	0,001
837,6	0,002
838	0,002
838,4	0,002
838,9	0,002
839,3	0,002
839,7	0,002
840,1	0,002
840,6	0,002
841	0,001
841,4	0,002
841,9	0,001
842,3	0,002
842,7	0,002
843,1	0,002
843,6	0,002
844	0,001
844,4	0,001
844,9	0,001
845,3	0,001
845,7	0
846,2	0,001
846,6	0,001
847	0,001
847,4	0,002
847,9	0,002
848,3	0,002
848,7	0,002
849,2	0,002
849,6	0,002
850	0,002
850,4	0,002
850,9	0,003
851,3	0,003
851,7	0,003
852,2	0,003
852,6	0,003
853	0,003
853,4	0,003
853,9	0,002
854,3	0,002
854,7	0,002
855,2	0,002
855,6	0,002
856	0,002
856,4	0,002
856,9	0,002
857,3	0,002
857,7	0,002
858,2	0,002
858,6	0,003
859	0,002
859,4	0,002
859,9	0,002
860,3	0,002
860,7	0,002
861,1	0,002
861,6	0,002
862	0,002
862,4	0,002
862,9	0,002
863,3	0,002
863,7	0,002
864,1	0,002
864,6	0,002
865	0,002
865,4	0,002
865,9	0,001
866,3	0,001
866,7	0
867,1	0
867,6	-0
868	-0,001
868,4	-0
868,8	-0
869,3	0
869,7	0,001
870,1	0,001
870,6	0,002
871	0,002
871,4	0,002
871,8	0,001
872,3	0,001
872,7	0
873,1	0
873,5	0
874	0
874,4	0
874,8	0,001
875,3	0,001
875,7	0,001
876,1	0,001
876,5	0,001
877	0,001
877,4	0,002
877,8	0,002
878,2	0,002
878,7	0,002
879,1	0,002
879,5	0,002
879,9	0,002
880,4	0,002
880,8	0,002
881,2	0,001
881,7	0,001
882,1	0,001
882,5	0,002
882,9	0,002
883,4	0,002
883,8	0,002
884,2	0,002
884,6	0,002
885,1	0,002
885,5	0,002
885,9	0,001
886,3	0,001
886,8	0,001
887,2	0,001
887,6	0,001
888	0,001
888,5	0,001
888,9	0,001
889,3	0,001
889,8	0,001
890,2	0,001
890,6	0,001
891	0,001
891,5	0,001
891,9	0,002
892,3	0,002
892,7	0,002
893,2	0,002
893,6	0,003
894	0,003
894,4	0,003
894,9	0,003
895,3	0,002
895,7	0,002
896,1	0,002
896,6	0,002
897	0,002
897,4	0,001
897,8	0,001
898,3	0,001
898,7	0,001
899,1	0,001
899,5	0,001
900	0
900,4	0
900,8	0
901,2	0
901,7	0
902,1	0
902,5	0
902,9	-0
903,4	-0
903,8	-0
904,2	-0
904,6	0
905,1	0,001
905,5	0,001
905,9	0,001
906,3	0,002
906,8	0,002
907,2	0,002
907,6	0,001
908	0,001
908,5	0,001
908,9	0,001
909,3	0,001
909,7	0,002
910,2	0,002
910,6	0,002
911	0,002
911,4	0,002
911,9	0,002
912,3	0,002
912,7	0,002
913,1	0,002
913,6	0,002
914	0,002
914,4	0,002
914,8	0,002
915,3	0,002
915,7	0,001
916,1	0,001
916,5	0,001
916,9	0,001
917,4	0,001
917,8	0,001
918,2	0,001
918,6	0,002
919,1	0,002
919,5	0,002
919,9	0,002
920,3	0,002
920,8	0,002
921,2	0,002
921,6	0,002
922	0,001
922,5	0,001
922,9	0,002
923,3	0,002
923,7	0,002
924,2	0,002
924,6	0,002
925	0,002
925,4	0,002
925,8	0,002
926,3	0,002
926,7	0,002
927,1	0,002
927,5	0,002
928	0,002
928,4	0,002
928,8	0,002
929,2	0,002
929,7	0,002
930,1	0,002
930,5	0,002
930,9	0,002
931,3	0,001
931,8	0,001
932,2	0
932,6	0
933	0
933,5	0
933,9	0
934,3	0
934,7	0
935,2	0,001
935,6	0,001
936	0,001
936,4	0,001
936,8	0,001
937,3	0,001
937,7	0,001
938,1	0,001
938,5	0,001
939	0,001
939,4	0,001
939,8	0,002
940,2	0,002
940,6	0,002
941,1	0,003
941,5	0,003
941,9	0,004
942,3	0,004
942,8	0,003
943,2	0,003
943,6	0,003
944	0,003
944,4	0,003
944,9	0,003
945,3	0,003
945,7	0,003
946,1	0,003
946,6	0,003
947	0,004
947,4	0,004
947,8	0,004
948,2	0,004
948,7	0,004
949,1	0,004
949,5	0,003
949,9	0,003
950,3	0,003
950,8	0,003
951,2	0,004
951,6	0,004
952	0,005
952,5	0,004
952,9	0,004
953,3	0,004
953,7	0,005
954,1	0,004
954,6	0,005
955	0,004
955,4	0,005
955,8	0,004
956,2	0,005
956,7	0,004
957,1	0,004
957,5	0,004
957,9	0,004
958,3	0,004
958,8	0,004
959,2	0,003
959,6	0,004
960	0,004
960,5	0,004
960,9	0,004
961,3	0,004
961,7	0,005
962,1	0,005
962,6	0,005
963	0,005
963,4	0,005
963,8	0,005
964,2	0,005
964,7	0,005
965,1	0,005
965,5	0,005
965,9	0,005
966,3	0,005
966,8	0,005
967,2	0,005
967,6	0,005
968	0,005
968,4	0,005
968,9	0,005
969,3	0,005
969,7	0,005
970,1	0,005
970,5	0,005
971	0,005
971,4	0,005
971,8	0,005
972,2	0,006
972,6	0,006
973,1	0,006
973,5	0,006
973,9	0,006
974,3	0,006
974,7	0,006
975,2	0,005
975,6	0,005
976	0,005
976,4	0,005
976,8	0,004
977,3	0,005
977,7	0,005
978,1	0,004
978,5	0,004
978,9	0,003
979,4	0,003
979,8	0,004
980,2	0,003
980,6	0,003
981	0,004
981,5	0,004
981,9	0,004
982,3	0,004
982,7	0,004
983,1	0,004
983,6	0,004
984	0,003
984,4	0,004
984,8	0,003
985,2	0,003
985,6	0,003
986,1	0,003
986,5	0,003
986,9	0,004
987,3	0,004
987,7	0,004
988,2	0,004
988,6	0,004
989	0,003
989,4	0,003
989,8	0,002
990,3	0,002
990,7	0,003
991,1	0,003
991,5	0,004
991,9	0,004
992,3	0,004
992,8	0,004
993,2	0,004
993,6	0,003
994	0,003
994,4	0,003
994,9	0,003
995,3	0,003
995,7	0,003
996,1	0,002
996,5	0,002
996,9	0,003
997,4	0,003
997,8	0,003
998,2	0,002
998,6	0,002
999	0,002
999,5	0,001
999,9	0,001
1000,3	0
1000,7	0
1001,1	0
1001,5	0
1002	0,001
1002,4	0,002
1002,8	0,001
1003,2	0,002
1003,6	0,001
1004	0,001
1004,5	0,001
1004,9	0,001
1005,3	0,001
1005,7	0,001
1006,1	0,001
1006,6	0,002
1007	0,002
1007,4	0,002
1007,8	0,002
1008,2	0,002
1008,6	0,002
1009,1	0,002
1009,5	0,001
1009,9	0,001
1010,3	0,001
1010,7	0,001
1011,1	0,002
1011,6	0,002
1012	0,003
1012,4	0,002
1012,8	0,003
1013,2	0,003
1013,6	0,003
1014,1	0,002
1014,5	0,002
1014,9	0,002
1015,3	0,002
1015,7	0,002
1016,1	0,002
1016,6	0,002
1017	0,001
1017,4	0,001
1017,8	0,001
1018,2	0
1018,6	0
1019,1	0
1019,5	0
1019,9	-0
1020,3	0
1020,7	0,001
1021,1	0,001
1021,6	0,001
1022	0,001
1022,4	0,001
1022,8	0,001
1023,2	0,002
1023,6	0,002
1024,1	0,002
1024,5	0,002
1024,9	0,002
1025,3	0,003
1025,7	0,003
1026,1	0,002
1026,6	0,002
1027	0,002
1027,4	0,001
1027,8	0,001
1028,2	0,001
1028,6	0,002
1029	0,002
1029,5	0,001
1029,9	0,002
1030,3	0,002
1030,7	0,001
1031,1	0,001
1031,5	0,001
1032	0,001
1032,4	0,001
1032,8	0,001
1033,2	0,002
1033,6	0,002
1034	0,002
1034,4	0,002
1034,9	0,003
1035,3	0,003
1035,7	0,003
1036,1	0,003
1036,5	0,003
1036,9	0,003
1037,4	0,003
1037,8	0,003
1038,2	0,003
1038,6	0,003
1039	0,003
1039,4	0,003
1039,8	0,004
1040,3	0,003
1040,7	0,003
1041,1	0,003
1041,5	0,004
1041,9	0,003
1042,3	0,003
1042,7	0,002
1043,2	0,002
1043,6	0,002
1044	0,002
1044,4	0,002
1044,8	0,001
1045,2	0,001
1045,6	0,003
1046,1	0,003
1046,5	0,003
1046,9	0,003
1047,3	0,003
1047,7	0,004
1048,1	0,003
1048,5	0,003
1049	0,004
1049,4	0,005
1049,8	0,004
1050,2	0,004
1050,6	0,004
1051	0,004
1051,4	0,004
1051,9	0,004
1052,3	0,005
1052,7	0,005
1053,1	0,005
1053,5	0,005
1053,9	0,005
1054,3	0,004
1054,8	0,003
1055,2	0,003
1055,6	0,003
1056	0,003
1056,4	0,004
1056,8	0,004
1057,2	0,005
1057,6	0,005
1058,1	0,005
1058,5	0,005
1058,9	0,005
1059,3	0,005
1059,7	0,005
1060,1	0,006
1060,5	0,006
1061	0,007
1061,4	0,006
1061,8	0,006
1062,2	0,005
1062,6	0,006
1063	0,005
1063,4	0,005
1063,8	0,005
1064,3	0,005
1064,7	0,005
1065,1	0,005
1065,5	0,003
1065,9	0,003
1066,3	0,003
1066,7	0,003
1067,1	0,002
1067,6	0,002
1068	0,003
1068,4	0,004
1068,8	0,004
1069,2	0,004
1069,6	0,004
1070	0,005
1070,4	0,004
1070,9	0,005
1071,3	0,004
1071,7	0,004
1072,1	0,005
1072,5	0,005
1072,9	0,005
1073,3	0,006
1073,7	0,006
1074,2	0,006
1074,6	0,007
1075	0,007
1075,4	0,006
1075,8	0,008
1076,2	0,007
1076,6	0,006
1077	0,007
1077,5	0,007
1077,9	0,007
1078,3	0,007
1078,7	0,006
1079,1	0,006
1079,5	0,008
1079,9	0,007
1080,3	0,007
1080,7	0,006
1081,2	0,006
1081,6	0,006
1082	0,006
1082,4	0,006
1082,8	0,005
1083,2	0,005
1083,6	0,004
1084	0,005
1084,5	0,006
1084,9	0,005
1085,3	0,005
1085,7	0,007
1086,1	0,007
1086,5	0,01
1086,9	0,01
1087,3	0,008
1087,7	0,008
1088,2	0,007
1088,6	0,005
1089	0,006
1089,4	0,005
1089,8	0,006
1090,2	0,006
1090,6	0,008
1091	0,009
1091,4	0,011
1091,9	0,008
1092,3	0,007
1092,7	0,005
1093,1	0,006
1093,5	0,003
1093,9	0,004
1094,3	-0,001
1094,7	0,001
1095,1	0,005
1095,5	0,008
1096	0,01
1096,4	0,016
1096,8	0,017
1097,2	0,026
1097,6	0,024
1098	0,021
1098,4	0,028
1098,8	0,027
1099,2	0,023
1099,6	0,023
1100,1	0,015
1100,5	0,016
1100,9	0,015
1101,3	0,015
1101,7	0,016
1102,1	0,019
1102,5	0,01
1102,9	0,022
1103,3	0,023
1103,7	0,024
1104,2	0,009
1104,6	0,007
1105	0,009
1105,4	0,019
1105,8	0,018
1106,2	0,023
1106,6	0,034
1107	0,055
1107,4	0,075
1107,8	0,098
1108,3	-0,908
