Data from Absorbance_043.txt Node
Date: Fri Nov 13 13:38:53 MSK 2020
User: vat
Spectrometer: MAYP114033
Trigger mode: 0
Integration Time (sec): 8,000000E-3
Scans to average: 10
Electric dark correction enabled: true
Nonlinearity correction enabled: false
Boxcar width: 3
XAxis mode: Wavelengths
Number of Pixels in Spectrum: 2068
>>>>>Begin Spectral Data<<<<<
199,4	-0
199,9	-0,014
200,4	-0,068
200,8	0,057
201,3	0,036
201,8	0,049
202,2	0,054
202,7	0,053
203,2	0,066
203,6	0,084
204,1	0,077
204,6	0,077
205	0,075
205,5	0,094
206	0,087
206,4	0,09
206,9	0,098
207,4	0,096
207,8	0,098
208,3	0,097
208,8	0,093
209,2	0,088
209,7	0,094
210,2	0,088
210,6	0,09
211,1	0,101
211,5	0,111
212	0,12
212,5	0,135
212,9	0,142
213,4	0,144
213,9	0,149
214,3	0,132
214,8	0,156
215,3	0,164
215,7	0,157
216,2	0,163
216,7	0,173
217,1	0,162
217,6	0,162
218,1	0,134
218,5	0,12
219	0,141
219,5	0,123
219,9	0,1
220,4	0,087
220,9	0,098
221,3	0,113
221,8	0,101
222,3	0,086
222,7	0,086
223,2	0,097
223,6	0,119
224,1	0,094
224,6	0,087
225	0,091
225,5	0,086
226	0,102
226,4	0,106
226,9	0,088
227,4	0,104
227,8	0,094
228,3	0,108
228,8	0,135
229,2	0,115
229,7	0,105
230,2	0,119
230,6	0,11
231,1	0,113
231,5	0,105
232	0,088
232,5	0,105
232,9	0,126
233,4	0,119
233,9	0,146
234,3	0,157
234,8	0,164
235,3	0,16
235,7	0,141
236,2	0,133
236,7	0,136
237,1	0,134
237,6	0,129
238,1	0,121
238,5	0,122
239	0,139
239,4	0,141
239,9	0,135
240,4	0,122
240,8	0,135
241,3	0,154
241,8	0,157
242,2	0,144
242,7	0,132
243,2	0,142
243,6	0,156
244,1	0,157
244,6	0,148
245	0,145
245,5	0,161
245,9	0,167
246,4	0,163
246,9	0,162
247,3	0,15
247,8	0,14
248,3	0,139
248,7	0,137
249,2	0,141
249,7	0,143
250,1	0,139
250,6	0,14
251	0,141
251,5	0,144
252	0,139
252,4	0,136
252,9	0,136
253,4	0,138
253,8	0,138
254,3	0,141
254,8	0,142
255,2	0,146
255,7	0,149
256,1	0,153
256,6	0,158
257,1	0,163
257,5	0,166
258	0,171
258,5	0,176
258,9	0,181
259,4	0,187
259,9	0,191
260,3	0,196
260,8	0,203
261,2	0,209
261,7	0,215
262,2	0,222
262,6	0,226
263,1	0,234
263,6	0,24
264	0,246
264,5	0,253
264,9	0,26
265,4	0,267
265,9	0,275
266,3	0,281
266,8	0,289
267,3	0,295
267,7	0,303
268,2	0,31
268,7	0,317
269,1	0,324
269,6	0,332
270	0,338
270,5	0,347
271	0,354
271,4	0,36
271,9	0,367
272,4	0,374
272,8	0,379
273,3	0,387
273,7	0,392
274,2	0,398
274,7	0,404
275,1	0,41
275,6	0,416
276,1	0,422
276,5	0,427
277	0,432
277,4	0,436
277,9	0,441
278,4	0,445
278,8	0,449
279,3	0,452
279,8	0,456
280,2	0,458
280,7	0,46
281,1	0,462
281,6	0,464
282,1	0,464
282,5	0,464
283	0,464
283,4	0,465
283,9	0,464
284,4	0,463
284,8	0,461
285,3	0,46
285,8	0,457
286,2	0,455
286,7	0,45
287,1	0,446
287,6	0,442
288,1	0,438
288,5	0,433
289	0,428
289,5	0,422
289,9	0,416
290,4	0,409
290,8	0,402
291,3	0,395
291,8	0,387
292,2	0,379
292,7	0,37
293,1	0,362
293,6	0,354
294,1	0,345
294,5	0,336
295	0,327
295,5	0,318
295,9	0,308
296,4	0,298
296,8	0,288
297,3	0,278
297,8	0,268
298,2	0,259
298,7	0,249
299,1	0,239
299,6	0,23
300,1	0,22
300,5	0,211
301	0,202
301,5	0,193
301,9	0,184
302,4	0,176
302,8	0,167
303,3	0,159
303,8	0,152
304,2	0,144
304,7	0,137
305,1	0,13
305,6	0,123
306,1	0,117
306,5	0,111
307	0,105
307,4	0,099
307,9	0,094
308,4	0,089
308,8	0,084
309,3	0,08
309,8	0,076
310,2	0,071
310,7	0,067
311,1	0,063
311,6	0,06
312,1	0,057
312,5	0,053
313	0,05
313,4	0,048
313,9	0,045
314,4	0,043
314,8	0,04
315,3	0,038
315,7	0,036
316,2	0,034
316,7	0,032
317,1	0,03
317,6	0,029
318	0,028
318,5	0,027
319	0,026
319,4	0,025
319,9	0,024
320,3	0,023
320,8	0,022
321,3	0,022
321,7	0,021
322,2	0,02
322,6	0,019
323,1	0,018
323,6	0,018
324	0,018
324,5	0,018
324,9	0,017
325,4	0,017
325,9	0,017
326,3	0,017
326,8	0,017
327,2	0,016
327,7	0,016
328,2	0,015
328,6	0,016
329,1	0,015
329,5	0,015
330	0,014
330,5	0,014
330,9	0,014
331,4	0,014
331,8	0,013
332,3	0,013
332,8	0,013
333,2	0,012
333,7	0,012
334,1	0,012
334,6	0,011
335,1	0,011
335,5	0,011
336	0,01
336,4	0,011
336,9	0,011
337,4	0,011
337,8	0,011
338,3	0,011
338,7	0,011
339,2	0,012
339,7	0,012
340,1	0,012
340,6	0,012
341	0,012
341,5	0,012
342	0,012
342,4	0,011
342,9	0,011
343,3	0,011
343,8	0,011
344,2	0,01
344,7	0,011
345,2	0,011
345,6	0,011
346,1	0,01
346,5	0,01
347	0,01
347,5	0,011
347,9	0,01
348,4	0,01
348,8	0,01
349,3	0,01
349,8	0,009
350,2	0,009
350,7	0,01
351,1	0,01
351,6	0,01
352	0,01
352,5	0,01
353	0,01
353,4	0,011
353,9	0,011
354,3	0,01
354,8	0,01
355,3	0,011
355,7	0,01
356,2	0,01
356,6	0,01
357,1	0,01
357,5	0,01
358	0,009
358,5	0,01
358,9	0,01
359,4	0,01
359,8	0,01
360,3	0,01
360,8	0,01
361,2	0,01
361,7	0,009
362,1	0,009
362,6	0,009
363	0,009
363,5	0,008
364	0,008
364,4	0,008
364,9	0,009
365,3	0,009
365,8	0,008
366,3	0,008
366,7	0,009
367,2	0,009
367,6	0,009
368,1	0,009
368,5	0,008
369	0,008
369,5	0,009
369,9	0,008
370,4	0,008
370,8	0,008
371,3	0,008
371,7	0,008
372,2	0,008
372,7	0,008
373,1	0,008
373,6	0,008
374	0,009
374,5	0,009
374,9	0,009
375,4	0,009
375,9	0,008
376,3	0,008
376,8	0,008
377,2	0,008
377,7	0,007
378,2	0,007
378,6	0,007
379,1	0,007
379,5	0,007
380	0,007
380,4	0,008
380,9	0,007
381,4	0,007
381,8	0,007
382,3	0,007
382,7	0,007
383,2	0,007
383,6	0,007
384,1	0,007
384,6	0,008
385	0,008
385,5	0,008
385,9	0,008
386,4	0,008
386,8	0,008
387,3	0,007
387,7	0,007
388,2	0,007
388,7	0,007
389,1	0,007
389,6	0,007
390	0,007
390,5	0,007
390,9	0,007
391,4	0,007
391,9	0,007
392,3	0,007
392,8	0,007
393,2	0,007
393,7	0,007
394,1	0,007
394,6	0,007
395,1	0,007
395,5	0,007
396	0,007
396,4	0,007
396,9	0,007
397,3	0,006
397,8	0,006
398,2	0,006
398,7	0,006
399,2	0,006
399,6	0,006
400,1	0,006
400,5	0,006
401	0,006
401,4	0,006
401,9	0,006
402,4	0,007
402,8	0,006
403,3	0,007
403,7	0,006
404,2	0,006
404,6	0,007
405,1	0,007
405,5	0,006
406	0,006
406,5	0,006
406,9	0,006
407,4	0,006
407,8	0,006
408,3	0,006
408,7	0,006
409,2	0,006
409,6	0,005
410,1	0,005
410,6	0,006
411	0,005
411,5	0,006
411,9	0,006
412,4	0,006
412,8	0,006
413,3	0,006
413,7	0,006
414,2	0,006
414,7	0,006
415,1	0,006
415,6	0,005
416	0,005
416,5	0,005
416,9	0,005
417,4	0,005
417,8	0,005
418,3	0,005
418,8	0,006
419,2	0,006
419,7	0,006
420,1	0,006
420,6	0,006
421	0,006
421,5	0,006
421,9	0,006
422,4	0,005
422,8	0,005
423,3	0,005
423,8	0,005
424,2	0,005
424,7	0,005
425,1	0,005
425,6	0,005
426	0,005
426,5	0,006
426,9	0,006
427,4	0,006
427,9	0,006
428,3	0,005
428,8	0,005
429,2	0,005
429,7	0,005
430,1	0,004
430,6	0,004
431	0,004
431,5	0,004
431,9	0,005
432,4	0,005
432,8	0,005
433,3	0,005
433,8	0,006
434,2	0,006
434,7	0,005
435,1	0,005
435,6	0,005
436	0,005
436,5	0,005
436,9	0,005
437,4	0,005
437,8	0,006
438,3	0,006
438,8	0,006
439,2	0,005
439,7	0,005
440,1	0,005
440,6	0,004
441	0,004
441,5	0,004
441,9	0,004
442,4	0,004
442,8	0,004
443,3	0,004
443,7	0,003
444,2	0,003
444,7	0,003
445,1	0,004
445,6	0,004
446	0,003
446,5	0,004
446,9	0,004
447,4	0,005
447,8	0,005
448,3	0,005
448,7	0,005
449,2	0,005
449,6	0,005
450,1	0,006
450,6	0,006
451	0,005
451,5	0,006
451,9	0,006
452,4	0,005
452,8	0,005
453,3	0,005
453,7	0,005
454,2	0,005
454,6	0,004
455,1	0,004
455,5	0,004
456	0,004
456,4	0,004
456,9	0,004
457,3	0,004
457,8	0,004
458,3	0,005
458,7	0,005
459,2	0,004
459,6	0,005
460,1	0,004
460,5	0,005
461	0,004
461,4	0,004
461,9	0,004
462,3	0,004
462,8	0,004
463,2	0,004
463,7	0,004
464,1	0,005
464,6	0,005
465	0,005
465,5	0,005
466	0,004
466,4	0,004
466,9	0,004
467,3	0,004
467,8	0,003
468,2	0,003
468,7	0,004
469,1	0,004
469,6	0,004
470	0,004
470,5	0,004
470,9	0,004
471,4	0,004
471,8	0,004
472,3	0,004
472,7	0,004
473,2	0,004
473,6	0,004
474,1	0,005
474,5	0,004
475	0,004
475,4	0,004
475,9	0,004
476,4	0,004
476,8	0,004
477,3	0,004
477,7	0,004
478,2	0,004
478,6	0,004
479,1	0,004
479,5	0,004
480	0,004
480,4	0,004
480,9	0,004
481,3	0,004
481,8	0,004
482,2	0,004
482,7	0,004
483,1	0,004
483,6	0,005
484	0,005
484,5	0,005
484,9	0,004
485,4	0,004
485,8	0,004
486,3	0,004
486,7	0,003
487,2	0,003
487,6	0,003
488,1	0,004
488,5	0,004
489	0,004
489,4	0,005
489,9	0,004
490,4	0,004
490,8	0,004
491,3	0,004
491,7	0,004
492,2	0,004
492,6	0,004
493,1	0,004
493,5	0,004
494	0,004
494,4	0,004
494,9	0,004
495,3	0,004
495,8	0,003
496,2	0,003
496,7	0,003
497,1	0,003
497,6	0,003
498	0,003
498,5	0,003
498,9	0,003
499,4	0,003
499,8	0,003
500,3	0,003
500,7	0,003
501,2	0,003
501,6	0,003
502,1	0,003
502,5	0,003
503	0,003
503,4	0,003
503,9	0,003
504,3	0,003
504,8	0,004
505,2	0,003
505,7	0,003
506,1	0,003
506,6	0,004
507	0,004
507,5	0,004
507,9	0,004
508,4	0,004
508,8	0,004
509,3	0,004
509,7	0,003
510,2	0,004
510,6	0,004
511,1	0,004
511,5	0,004
512	0,004
512,4	0,004
512,9	0,004
513,3	0,003
513,8	0,003
514,2	0,003
514,7	0,004
515,1	0,004
515,6	0,003
516	0,003
516,5	0,003
516,9	0,003
517,4	0,003
517,8	0,003
518,3	0,003
518,7	0,003
519,2	0,003
519,6	0,003
520,1	0,004
520,5	0,003
521	0,002
521,4	0,003
521,9	0,003
522,3	0,003
522,8	0,004
523,2	0,004
523,7	0,004
524,1	0,004
524,6	0,004
525	0,003
525,5	0,003
525,9	0,003
526,4	0,003
526,8	0,003
527,3	0,003
527,7	0,003
528,2	0,003
528,6	0,003
529,1	0,003
529,5	0,003
530	0,003
530,4	0,003
530,9	0,003
531,3	0,003
531,8	0,003
532,2	0,003
532,6	0,003
533,1	0,003
533,5	0,003
534	0,003
534,4	0,004
534,9	0,003
535,3	0,003
535,8	0,004
536,2	0,004
536,7	0,004
537,1	0,005
537,6	0,004
538	0,004
538,5	0,004
538,9	0,003
539,4	0,003
539,8	0,003
540,3	0,002
540,7	0,003
541,2	0,003
541,6	0,002
542,1	0,003
542,5	0,002
543	0,002
543,4	0,002
543,9	0,002
544,3	0,002
544,8	0,002
545,2	0,002
545,7	0,003
546,1	0,003
546,5	0,003
547	0,003
547,4	0,003
547,9	0,002
548,3	0,002
548,8	0,002
549,2	0,002
549,7	0,002
550,1	0,002
550,6	0,002
551	0,003
551,5	0,003
551,9	0,003
552,4	0,003
552,8	0,003
553,3	0,003
553,7	0,003
554,2	0,003
554,6	0,003
555,1	0,002
555,5	0,003
555,9	0,002
556,4	0,002
556,8	0,002
557,3	0,002
557,7	0,003
558,2	0,003
558,6	0,003
559,1	0,003
559,5	0,004
560	0,003
560,4	0,004
560,9	0,003
561,3	0,003
561,8	0,002
562,2	0,002
562,7	0,002
563,1	0,002
563,6	0,002
564	0,002
564,4	0,003
564,9	0,003
565,3	0,004
565,8	0,003
566,2	0,003
566,7	0,003
567,1	0,003
567,6	0,003
568	0,003
568,5	0,003
568,9	0,003
569,4	0,003
569,8	0,002
570,3	0,003
570,7	0,002
571,1	0,002
571,6	0,002
572	0,003
572,5	0,003
572,9	0,003
573,4	0,003
573,8	0,003
574,3	0,003
574,7	0,003
575,2	0,003
575,6	0,003
576,1	0,003
576,5	0,003
576,9	0,002
577,4	0,002
577,8	0,002
578,3	0,002
578,7	0,002
579,2	0,002
579,6	0,003
580,1	0,003
580,5	0,003
581	0,002
581,4	0,002
581,9	0,002
582,3	0,002
582,7	0,002
583,2	0,002
583,6	0,002
584,1	0,002
584,5	0,003
585	0,003
585,4	0,003
585,9	0,003
586,3	0,003
586,8	0,003
587,2	0,003
587,6	0,003
588,1	0,002
588,5	0,002
589	0,002
589,4	0,002
589,9	0,002
590,3	0,002
590,8	0,002
591,2	0,002
591,7	0,003
592,1	0,003
592,5	0,002
593	0,002
593,4	0,002
593,9	0,002
594,3	0,002
594,8	0,002
595,2	0,002
595,7	0,002
596,1	0,002
596,6	0,002
597	0,002
597,4	0,002
597,9	0,002
598,3	0,002
598,8	0,002
599,2	0,002
599,7	0,002
600,1	0,002
600,6	0,002
601	0,002
601,4	0,002
601,9	0,002
602,3	0,002
602,8	0,002
603,2	0,002
603,7	0,002
604,1	0,002
604,6	0,002
605	0,002
605,4	0,002
605,9	0,002
606,3	0,002
606,8	0,002
607,2	0,002
607,7	0,002
608,1	0,002
608,6	0,002
609	0,002
609,4	0,002
609,9	0,002
610,3	0,002
610,8	0,002
611,2	0,002
611,7	0,002
612,1	0,002
612,6	0,002
613	0,002
613,4	0,002
613,9	0,002
614,3	0,002
614,8	0,002
615,2	0,002
615,7	0,002
616,1	0,002
616,6	0,002
617	0,002
617,4	0,002
617,9	0,002
618,3	0,002
618,8	0,002
619,2	0,002
619,7	0,002
620,1	0,002
620,5	0,002
621	0,002
621,4	0,002
621,9	0,002
622,3	0,002
622,8	0,002
623,2	0,002
623,6	0,002
624,1	0,002
624,5	0,002
625	0,002
625,4	0,002
625,9	0,002
626,3	0,002
626,8	0,002
627,2	0,002
627,6	0,002
628,1	0,002
628,5	0,002
629	0,002
629,4	0,002
629,9	0,002
630,3	0,002
630,7	0,002
631,2	0,002
631,6	0,002
632,1	0,002
632,5	0,002
633	0,003
633,4	0,002
633,8	0,003
634,3	0,002
634,7	0,003
635,2	0,003
635,6	0,003
636,1	0,003
636,5	0,003
636,9	0,003
637,4	0,002
637,8	0,002
638,3	0,002
638,7	0,002
639,2	0,002
639,6	0,002
640	0,002
640,5	0,002
640,9	0,002
641,4	0,002
641,8	0,002
642,2	0,002
642,7	0,002
643,1	0,002
643,6	0,002
644	0,002
644,5	0,001
644,9	0,002
645,3	0,002
645,8	0,002
646,2	0,002
646,7	0,002
647,1	0,002
647,6	0,002
648	0,002
648,4	0,002
648,9	0,002
649,3	0,002
649,8	0,002
650,2	0,002
650,6	0,002
651,1	0,002
651,5	0,002
652	0,002
652,4	0,001
652,9	0,002
653,3	0,003
653,7	0,007
654,2	0,005
654,6	0,004
655,1	0,003
655,5	0,002
655,9	0,002
656,4	0,001
656,8	-0,001
657,3	-0,001
657,7	-0,001
658,2	-0,001
658,6	0,001
659	0,001
659,5	0,001
659,9	0,001
660,4	0,001
660,8	0,002
661,2	0,002
661,7	0,002
662,1	0,001
662,6	0,002
663	0,002
663,4	0,002
663,9	0,002
664,3	0,002
664,8	0,002
665,2	0,002
665,6	0,002
666,1	0,002
666,5	0,002
667	0,002
667,4	0,002
667,9	0,002
668,3	0,002
668,7	0,002
669,2	0,002
669,6	0,002
670,1	0,002
670,5	0,002
670,9	0,002
671,4	0,002
671,8	0,002
672,3	0,001
672,7	0,001
673,1	0,001
673,6	0,001
674	0,001
674,5	0,001
674,9	0,001
675,3	0,001
675,8	0,001
676,2	0,001
676,7	0,002
677,1	0,002
677,5	0,002
678	0,002
678,4	0,002
678,9	0,002
679,3	0,002
679,7	0,002
680,2	0,001
680,6	0,001
681,1	0,001
681,5	0,001
681,9	0,001
682,4	0,001
682,8	0,002
683,3	0,002
683,7	0,002
684,1	0,002
684,6	0,002
685	0,001
685,5	0,001
685,9	0,001
686,3	0,001
686,8	0,001
687,2	0,001
687,7	0,001
688,1	0,001
688,5	0,001
689	0,002
689,4	0,002
689,9	0,002
690,3	0,002
690,7	0,002
691,2	0,002
691,6	0,002
692	0,002
692,5	0,001
692,9	0,001
693,4	0,001
693,8	0,001
694,2	0,001
694,7	0,001
695,1	0,001
695,6	0,002
696	0,002
696,4	0,002
696,9	0,002
697,3	0,002
697,8	0,002
698,2	0,002
698,6	0,001
699,1	0,001
699,5	0,001
699,9	0,001
700,4	0,001
700,8	0,001
701,3	0,001
701,7	0,001
702,1	0,001
702,6	0,001
703	0,001
703,5	0,001
703,9	0,001
704,3	0,001
704,8	0,002
705,2	0,002
705,6	0,002
706,1	0,002
706,5	0,002
707	0,002
707,4	0,002
707,8	0,002
708,3	0,002
708,7	0,002
709,2	0,001
709,6	0,001
710	0,001
710,5	0,001
710,9	0,001
711,3	0,001
711,8	0,001
712,2	0,001
712,7	0,001
713,1	0,002
713,5	0,002
714	0,002
714,4	0,002
714,8	0,002
715,3	0,002
715,7	0,001
716,2	0,001
716,6	0,002
717	0,002
717,5	0,002
717,9	0,002
718,3	0,002
718,8	0,002
719,2	0,002
719,7	0,002
720,1	0,002
720,5	0,002
721	0,002
721,4	0,002
721,8	0,002
722,3	0,002
722,7	0,002
723,2	0,002
723,6	0,002
724	0,002
724,5	0,002
724,9	0,002
725,3	0,002
725,8	0,002
726,2	0,002
726,7	0,001
727,1	0,001
727,5	0,001
728	0,001
728,4	0,001
728,8	0,001
729,3	0,001
729,7	0,001
730,1	0,001
730,6	0,001
731	0,001
731,5	0,001
731,9	0,001
732,3	0,001
732,8	0,001
733,2	0,001
733,6	0,001
734,1	0,001
734,5	0,001
734,9	0,001
735,4	0,001
735,8	0,001
736,3	0,001
736,7	0,001
737,1	0,001
737,6	0,001
738	0,001
738,4	0,001
738,9	0,001
739,3	0,001
739,7	0,001
740,2	0,001
740,6	0,001
741,1	0,001
741,5	0,001
741,9	0,001
742,4	0,001
742,8	0,001
743,2	0,001
743,7	0,002
744,1	0,001
744,5	0,002
745	0,002
745,4	0,002
745,8	0,002
746,3	0,002
746,7	0,001
747,2	0,001
747,6	0,001
748	0,001
748,5	0,001
748,9	0,001
749,3	0,001
749,8	0,001
750,2	0,001
750,6	0,001
751,1	0,002
751,5	0,001
751,9	0,001
752,4	0,001
752,8	0,001
753,3	0,001
753,7	0,001
754,1	0,001
754,6	0,001
755	0,001
755,4	0,001
755,9	0,001
756,3	0,001
756,7	0,001
757,2	0,002
757,6	0,001
758	0,002
758,5	0,002
758,9	0,002
759,3	0,002
759,8	0,002
760,2	0,002
760,6	0,001
761,1	0,001
761,5	0,001
761,9	0,001
762,4	0,001
762,8	0,001
763,3	0,001
763,7	0,001
764,1	0,001
764,6	0,002
765	0,002
765,4	0,002
765,9	0,002
766,3	0,002
766,7	0,002
767,2	0,002
767,6	0,002
768	0,002
768,5	0,002
768,9	0,002
769,3	0,002
769,8	0,002
770,2	0,001
770,6	0,001
771,1	0,001
771,5	0,001
771,9	0,001
772,4	0,001
772,8	0,001
773,2	0,001
773,7	0,001
774,1	0,001
774,5	0,001
775	0,001
775,4	0,001
775,8	0,001
776,3	0,001
776,7	0,001
777,1	0,001
777,6	0,001
778	0,002
778,4	0,002
778,9	0,002
779,3	0,002
779,7	0,002
780,2	0,001
780,6	0,001
781	0,001
781,5	0,001
781,9	0,001
782,3	0,001
782,8	0,001
783,2	0,001
783,6	0,001
784,1	0,001
784,5	0,001
784,9	0,001
785,4	0,001
785,8	0,001
786,2	0,001
786,7	0,001
787,1	0,001
787,5	0,001
788	0,001
788,4	0,001
788,8	0,001
789,3	0,001
789,7	0,001
790,1	0,001
790,6	0,001
791	0,002
791,4	0,002
791,9	0,002
792,3	0,002
792,7	0,002
793,2	0,002
793,6	0,002
794	0,002
794,5	0,002
794,9	0,001
795,3	0,001
795,8	0,001
796,2	0,001
796,6	0,001
797,1	0,001
797,5	0,001
797,9	0,001
798,4	0,002
798,8	0,001
799,2	0,002
799,7	0,001
800,1	0,001
800,5	0,001
801	0,001
801,4	0,001
801,8	0,001
802,2	0,001
802,7	0,001
803,1	0,001
803,5	0,001
804	0,001
804,4	0,001
804,8	0,001
805,3	0,001
805,7	0,001
806,1	0,001
806,6	0,001
807	0,001
807,4	0,001
807,9	0,001
808,3	0,001
808,7	0,001
809,2	0,001
809,6	0,001
810	0,002
810,4	0,002
810,9	0,002
811,3	0,002
811,7	0,002
812,2	0,002
812,6	0,002
813	0,002
813,5	0,002
813,9	0,002
814,3	0,002
814,8	0,001
815,2	0,001
815,6	0,001
816,1	0,001
816,5	0,001
816,9	0,001
817,3	0,001
817,8	0,001
818,2	0,001
818,6	0,001
819,1	0,001
819,5	0,001
819,9	0,001
820,4	0,001
820,8	0,001
821,2	0,001
821,7	0,001
822,1	0,001
822,5	0,001
822,9	0,001
823,4	0,001
823,8	0,001
824,2	0,001
824,7	0,001
825,1	0,001
825,5	0,001
826	0,001
826,4	0,001
826,8	0,001
827,3	0,001
827,7	0,001
828,1	0,001
828,5	0,001
829	0,001
829,4	0,001
829,8	0,001
830,3	0,001
830,7	0,001
831,1	0,001
831,6	0,001
832	0,001
832,4	0,001
832,8	0,001
833,3	0,001
833,7	0,001
834,1	0,001
834,6	0,001
835	0,001
835,4	0,001
835,8	0,001
836,3	0,001
836,7	0,001
837,1	0,001
837,6	0,001
838	0,002
838,4	0,001
838,9	0,001
839,3	0,002
839,7	0,002
840,1	0,002
840,6	0,002
841	0,002
841,4	0,002
841,9	0,002
842,3	0,002
842,7	0,002
843,1	0,002
843,6	0,002
844	0,002
844,4	0,002
844,9	0,002
845,3	0,002
845,7	0,002
846,2	0,001
846,6	0,001
847	0,001
847,4	0,001
847,9	0,001
848,3	0,001
848,7	0,001
849,2	0,001
849,6	0,001
850	0,001
850,4	0,002
850,9	0,002
851,3	0,001
851,7	0,001
852,2	0,001
852,6	0,001
853	0,001
853,4	0,001
853,9	0,001
854,3	0,001
854,7	0,001
855,2	0,001
855,6	0,001
856	0,001
856,4	0,001
856,9	0,001
857,3	0,001
857,7	0,001
858,2	0,002
858,6	0,002
859	0,001
859,4	0,001
859,9	0,001
860,3	0,001
860,7	0,001
861,1	0,001
861,6	0,001
862	0,002
862,4	0,002
862,9	0,002
863,3	0,002
863,7	0,002
864,1	0,002
864,6	0,002
865	0,002
865,4	0,002
865,9	0,002
866,3	0,002
866,7	0,002
867,1	0,002
867,6	0,002
868	0,002
868,4	0,002
868,8	0,001
869,3	0,001
869,7	0,001
870,1	0,001
870,6	0,001
871	0,001
871,4	0,001
871,8	0,001
872,3	0,002
872,7	0,002
873,1	0,002
873,5	0,002
874	0,002
874,4	0,002
874,8	0,002
875,3	0,002
875,7	0,001
876,1	0,001
876,5	0,001
877	0,001
877,4	0,001
877,8	0,001
878,2	0,001
878,7	0,001
879,1	0,001
879,5	0,002
879,9	0,002
880,4	0,001
880,8	0,001
881,2	0,001
881,7	0,001
882,1	0,001
882,5	0,001
882,9	0,001
883,4	0,001
883,8	0,001
884,2	0,001
884,6	0,001
885,1	0,001
885,5	0,002
885,9	0,002
886,3	0,002
886,8	0,002
887,2	0,002
887,6	0,002
888	0,002
888,5	0,002
888,9	0,001
889,3	0,001
889,8	0,001
890,2	0,001
890,6	0,001
891	0,001
891,5	0,001
891,9	0,001
892,3	0,001
892,7	0,001
893,2	0,001
893,6	0,002
894	0,002
894,4	0,001
894,9	0,001
895,3	0,002
895,7	0,002
896,1	0,002
896,6	0,001
897	0,002
897,4	0,001
897,8	0,001
898,3	0,001
898,7	0,002
899,1	0,002
899,5	0,002
900	0,002
900,4	0,002
900,8	0,002
901,2	0,002
901,7	0,002
902,1	0,002
902,5	0,002
902,9	0,002
903,4	0,002
903,8	0,002
904,2	0,001
904,6	0,001
905,1	0,001
905,5	0,001
905,9	0,001
906,3	0,001
906,8	0,001
907,2	0,001
907,6	0,001
908	0,001
908,5	0,001
908,9	0,001
909,3	0,001
909,7	0,001
910,2	0,001
910,6	0,001
911	0,001
911,4	0,001
911,9	0,001
912,3	0,001
912,7	0,001
913,1	0,001
913,6	0,001
914	0,001
914,4	0,001
914,8	0,001
915,3	0,001
915,7	0,001
916,1	0,002
916,5	0,001
916,9	0,001
917,4	0,001
917,8	0,001
918,2	0,001
918,6	0,001
919,1	0,001
919,5	0,001
919,9	0,001
920,3	0,001
920,8	0,001
921,2	0,001
921,6	0,001
922	0,001
922,5	0,001
922,9	0,001
923,3	0,001
923,7	0,001
924,2	0,002
924,6	0,001
925	0,002
925,4	0,001
925,8	0,001
926,3	0,001
926,7	0,001
927,1	0,001
927,5	0,001
928	0,001
928,4	0,001
928,8	0,001
929,2	0,001
929,7	0,001
930,1	0,001
930,5	0,001
930,9	0,001
931,3	0,001
931,8	0,002
932,2	0,002
932,6	0,002
933	0,002
933,5	0,002
933,9	0,001
934,3	0,001
934,7	0,001
935,2	0,001
935,6	0,001
936	0,001
936,4	0,001
936,8	0,001
937,3	0,001
937,7	0,001
938,1	0,001
938,5	0,001
939	0,001
939,4	0,001
939,8	0,001
940,2	0,002
940,6	0,002
941,1	0,001
941,5	0,001
941,9	0,001
942,3	0,001
942,8	0,001
943,2	0
943,6	0
944	0,001
944,4	0,001
944,9	0,001
945,3	0,001
945,7	0,001
946,1	0,002
946,6	0,002
947	0,002
947,4	0,002
947,8	0,002
948,2	0,002
948,7	0,002
949,1	0,002
949,5	0,001
949,9	0,001
950,3	0,001
950,8	0,001
951,2	0,001
951,6	0,001
952	0,001
952,5	0,002
952,9	0,002
953,3	0,002
953,7	0,003
954,1	0,003
954,6	0,003
955	0,002
955,4	0,002
955,8	0,002
956,2	0,002
956,7	0,001
957,1	0,001
957,5	0,001
957,9	0,001
958,3	0,001
958,8	0,001
959,2	0,001
959,6	0
960	0
960,5	0,001
960,9	-0
961,3	-0
961,7	-0
962,1	-0
962,6	0
963	0
963,4	0
963,8	0,001
964,2	0,001
964,7	0,001
965,1	0,001
965,5	0,001
965,9	0,001
966,3	0,002
966,8	0,002
967,2	0,002
967,6	0,002
968	0,002
968,4	0,003
968,9	0,003
969,3	0,002
969,7	0,002
970,1	0,002
970,5	0,002
971	0,002
971,4	0,001
971,8	0,001
972,2	0,001
972,6	0,001
973,1	0,001
973,5	0,001
973,9	0,001
974,3	0,001
974,7	0,001
975,2	0,001
975,6	0,001
976	0,001
976,4	0,002
976,8	0,002
977,3	0,002
977,7	0,002
978,1	0,002
978,5	0,002
978,9	0,002
979,4	0,001
979,8	0,001
980,2	0,001
980,6	0,001
981	0,001
981,5	0,001
981,9	0
982,3	0,001
982,7	0,001
983,1	0,001
983,6	0,001
984	0,001
984,4	0,001
984,8	0,002
985,2	0,002
985,6	0,002
986,1	0,002
986,5	0,002
986,9	0,002
987,3	0,002
987,7	0,002
988,2	0,002
988,6	0,002
989	0,002
989,4	0,002
989,8	0,002
990,3	0,002
990,7	0,002
991,1	0,002
991,5	0,003
991,9	0,003
992,3	0,003
992,8	0,003
993,2	0,002
993,6	0,002
994	0,002
994,4	0,002
994,9	0,002
995,3	0,002
995,7	0,002
996,1	0,002
996,5	0,002
996,9	0,003
997,4	0,002
997,8	0,003
998,2	0,003
998,6	0,003
999	0,003
999,5	0,003
999,9	0,002
1000,3	0,002
1000,7	0,002
1001,1	0,002
1001,5	0,002
1002	0,002
1002,4	0,003
1002,8	0,003
1003,2	0,003
1003,6	0,003
1004	0,003
1004,5	0,004
1004,9	0,003
1005,3	0,003
1005,7	0,003
1006,1	0,004
1006,6	0,004
1007	0,004
1007,4	0,003
1007,8	0,003
1008,2	0,003
1008,6	0,003
1009,1	0,002
1009,5	0,002
1009,9	0,002
1010,3	0,002
1010,7	0,002
1011,1	0,002
1011,6	0,002
1012	0,003
1012,4	0,003
1012,8	0,002
1013,2	0,003
1013,6	0,003
1014,1	0,003
1014,5	0,002
1014,9	0,002
1015,3	0,002
1015,7	0,003
1016,1	0,002
1016,6	0,002
1017	0,003
1017,4	0,004
1017,8	0,004
1018,2	0,004
1018,6	0,003
1019,1	0,004
1019,5	0,003
1019,9	0,003
1020,3	0,002
1020,7	0,002
1021,1	0,002
1021,6	0,003
1022	0,002
1022,4	0,002
1022,8	0,002
1023,2	0,003
1023,6	0,003
1024,1	0,002
1024,5	0,002
1024,9	0,001
1025,3	0,002
1025,7	0,001
1026,1	0,001
1026,6	0,002
1027	0,002
1027,4	0,002
1027,8	0,003
1028,2	0,003
1028,6	0,003
1029	0,004
1029,5	0,003
1029,9	0,003
1030,3	0,003
1030,7	0,003
1031,1	0,003
1031,5	0,003
1032	0,003
1032,4	0,003
1032,8	0,004
1033,2	0,004
1033,6	0,004
1034	0,004
1034,4	0,004
1034,9	0,004
1035,3	0,004
1035,7	0,004
1036,1	0,004
1036,5	0,004
1036,9	0,004
1037,4	0,004
1037,8	0,004
1038,2	0,004
1038,6	0,004
1039	0,004
1039,4	0,003
1039,8	0,003
1040,3	0,003
1040,7	0,003
1041,1	0,003
1041,5	0,004
1041,9	0,004
1042,3	0,005
1042,7	0,004
1043,2	0,004
1043,6	0,003
1044	0,003
1044,4	0,003
1044,8	0,003
1045,2	0,002
1045,6	0,003
1046,1	0,003
1046,5	0,004
1046,9	0,003
1047,3	0,002
1047,7	0,002
1048,1	0,002
1048,5	0,003
1049	0,003
1049,4	0,004
1049,8	0,004
1050,2	0,004
1050,6	0,004
1051	0,003
1051,4	0,003
1051,9	0,002
1052,3	0,003
1052,7	0,004
1053,1	0,004
1053,5	0,005
1053,9	0,005
1054,3	0,004
1054,8	0,004
1055,2	0,003
1055,6	0,003
1056	0,003
1056,4	0,002
1056,8	0,003
1057,2	0,004
1057,6	0,004
1058,1	0,004
1058,5	0,003
1058,9	0,004
1059,3	0,004
1059,7	0,004
1060,1	0,004
1060,5	0,004
1061	0,004
1061,4	0,004
1061,8	0,004
1062,2	0,004
1062,6	0,004
1063	0,002
1063,4	0,004
1063,8	0,005
1064,3	0,005
1064,7	0,004
1065,1	0,003
1065,5	0,004
1065,9	0,005
1066,3	0,004
1066,7	0,004
1067,1	0,004
1067,6	0,003
1068	0,003
1068,4	0,003
1068,8	0,003
1069,2	0,002
1069,6	0,002
1070	0,003
1070,4	0,004
1070,9	0,005
1071,3	0,005
1071,7	0,005
1072,1	0,004
1072,5	0,005
1072,9	0,005
1073,3	0,005
1073,7	0,005
1074,2	0,006
1074,6	0,007
1075	0,007
1075,4	0,006
1075,8	0,006
1076,2	0,005
1076,6	0,005
1077	0,006
1077,5	0,005
1077,9	0,004
1078,3	0,004
1078,7	0,004
1079,1	0,004
1079,5	0,004
1079,9	0,003
1080,3	0,003
1080,7	0,005
1081,2	0,005
1081,6	0,006
1082	0,006
1082,4	0,008
1082,8	0,007
1083,2	0,007
1083,6	0,006
1084	0,007
1084,5	0,008
1084,9	0,01
1085,3	0,007
1085,7	0,007
1086,1	0,007
1086,5	0,009
1086,9	0,008
1087,3	0,007
1087,7	0,006
1088,2	0,008
1088,6	0,011
1089	0,012
1089,4	0,009
1089,8	0,007
1090,2	0,006
1090,6	0,007
1091	0,008
1091,4	0,008
1091,9	0,01
1092,3	0,011
1092,7	0,013
1093,1	0,014
1093,5	0,013
1093,9	0,009
1094,3	0,009
1094,7	0,009
1095,1	0,013
1095,5	0,015
1096	0,025
1096,4	0,026
1096,8	0,027
1097,2	0,032
1097,6	0,032
1098	0,033
1098,4	0,032
1098,8	0,026
1099,2	0,029
1099,6	0,034
1100,1	0,025
1100,5	0,029
1100,9	0,024
1101,3	0,025
1101,7	0,032
1102,1	0,03
1102,5	0,036
1102,9	0,05
1103,3	0,048
1103,7	0,054
1104,2	0,05
1104,6	0,049
1105	0,05
1105,4	0,056
1105,8	0,049
1106,2	0,052
1106,6	0,06
1107	0,097
1107,4	0,091
1107,8	0,151
1108,3	-0
