Data from Absorbance_106.txt Node
Date: Fri Nov 13 18:48:43 MSK 2020
User: vat
Spectrometer: MAYP114033
Trigger mode: 0
Integration Time (sec): 8,000000E-3
Scans to average: 10
Electric dark correction enabled: true
Nonlinearity correction enabled: false
Boxcar width: 3
XAxis mode: Wavelengths
Number of Pixels in Spectrum: 2068
>>>>>Begin Spectral Data<<<<<
199,4	-0
199,9	0,336
200,4	0,083
200,8	0,071
201,3	0,046
201,8	0,033
202,2	0,031
202,7	0,039
203,2	0,019
203,6	0,036
204,1	0,035
204,6	0,031
205	0,03
205,5	0,042
206	0,044
206,4	0,04
206,9	0,037
207,4	0,041
207,8	0,042
208,3	0,032
208,8	0,013
209,2	0,004
209,7	0,005
210,2	-0,008
210,6	-0,018
211,1	-0,023
211,5	-0,017
212	-0,01
212,5	-0,003
212,9	0,023
213,4	0,029
213,9	0,023
214,3	0,049
214,8	0,045
215,3	0,034
215,7	0,036
216,2	0,011
216,7	0,006
217,1	0,016
217,6	0,004
218,1	-0,006
218,5	0,001
219	-0,006
219,5	0,003
219,9	0,007
220,4	0,002
220,9	0,016
221,3	0,032
221,8	0,03
222,3	0,039
222,7	0,034
223,2	0,051
223,6	0,065
224,1	0,046
224,6	0,055
225	0,063
225,5	0,056
226	0,068
226,4	0,065
226,9	0,05
227,4	0,06
227,8	0,046
228,3	0,052
228,8	0,062
229,2	0,06
229,7	0,045
230,2	0,038
230,6	0,033
231,1	0,039
231,5	0,034
232	0,023
232,5	0,025
232,9	0,034
233,4	0,052
233,9	0,049
234,3	0,048
234,8	0,045
235,3	0,04
235,7	0,041
236,2	0,052
236,7	0,06
237,1	0,063
237,6	0,07
238,1	0,084
238,5	0,095
239	0,1
239,4	0,095
239,9	0,097
240,4	0,099
240,8	0,092
241,3	0,091
241,8	0,097
242,2	0,094
242,7	0,094
243,2	0,085
243,6	0,09
244,1	0,095
244,6	0,098
245	0,092
245,5	0,103
245,9	0,105
246,4	0,111
246,9	0,113
247,3	0,114
247,8	0,117
248,3	0,136
248,7	0,139
249,2	0,152
249,7	0,162
250,1	0,169
250,6	0,172
251	0,173
251,5	0,167
252	0,166
252,4	0,163
252,9	0,165
253,4	0,165
253,8	0,167
254,3	0,17
254,8	0,174
255,2	0,179
255,7	0,184
256,1	0,187
256,6	0,192
257,1	0,195
257,5	0,2
258	0,206
258,5	0,21
258,9	0,216
259,4	0,222
259,9	0,228
260,3	0,234
260,8	0,241
261,2	0,248
261,7	0,256
262,2	0,262
262,6	0,268
263,1	0,276
263,6	0,284
264	0,291
264,5	0,298
264,9	0,305
265,4	0,314
265,9	0,321
266,3	0,329
266,8	0,336
267,3	0,344
267,7	0,351
268,2	0,359
268,7	0,365
269,1	0,374
269,6	0,381
270	0,389
270,5	0,397
271	0,404
271,4	0,411
271,9	0,419
272,4	0,424
272,8	0,432
273,3	0,438
273,7	0,445
274,2	0,453
274,7	0,459
275,1	0,465
275,6	0,472
276,1	0,477
276,5	0,483
277	0,487
277,4	0,491
277,9	0,496
278,4	0,5
278,8	0,504
279,3	0,507
279,8	0,51
280,2	0,513
280,7	0,515
281,1	0,517
281,6	0,518
282,1	0,52
282,5	0,52
283	0,52
283,4	0,52
283,9	0,519
284,4	0,518
284,8	0,516
285,3	0,513
285,8	0,511
286,2	0,508
286,7	0,504
287,1	0,5
287,6	0,495
288,1	0,49
288,5	0,485
289	0,479
289,5	0,472
289,9	0,465
290,4	0,457
290,8	0,45
291,3	0,442
291,8	0,432
292,2	0,424
292,7	0,415
293,1	0,405
293,6	0,396
294,1	0,386
294,5	0,376
295	0,366
295,5	0,356
295,9	0,345
296,4	0,335
296,8	0,323
297,3	0,312
297,8	0,302
298,2	0,291
298,7	0,28
299,1	0,269
299,6	0,259
300,1	0,249
300,5	0,24
301	0,229
301,5	0,22
301,9	0,21
302,4	0,2
302,8	0,191
303,3	0,182
303,8	0,173
304,2	0,165
304,7	0,157
305,1	0,149
305,6	0,142
306,1	0,135
306,5	0,128
307	0,121
307,4	0,115
307,9	0,11
308,4	0,104
308,8	0,098
309,3	0,094
309,8	0,089
310,2	0,085
310,7	0,08
311,1	0,076
311,6	0,072
312,1	0,069
312,5	0,065
313	0,062
313,4	0,059
313,9	0,056
314,4	0,053
314,8	0,05
315,3	0,048
315,7	0,045
316,2	0,043
316,7	0,041
317,1	0,039
317,6	0,038
318	0,037
318,5	0,035
319	0,034
319,4	0,033
319,9	0,032
320,3	0,031
320,8	0,03
321,3	0,028
321,7	0,027
322,2	0,026
322,6	0,025
323,1	0,025
323,6	0,024
324	0,024
324,5	0,023
324,9	0,023
325,4	0,023
325,9	0,022
326,3	0,021
326,8	0,02
327,2	0,02
327,7	0,02
328,2	0,02
328,6	0,02
329,1	0,02
329,5	0,019
330	0,019
330,5	0,019
330,9	0,019
331,4	0,018
331,8	0,018
332,3	0,018
332,8	0,018
333,2	0,018
333,7	0,018
334,1	0,018
334,6	0,018
335,1	0,018
335,5	0,017
336	0,017
336,4	0,017
336,9	0,017
337,4	0,017
337,8	0,017
338,3	0,017
338,7	0,017
339,2	0,017
339,7	0,017
340,1	0,017
340,6	0,016
341	0,016
341,5	0,015
342	0,015
342,4	0,015
342,9	0,015
343,3	0,015
343,8	0,015
344,2	0,015
344,7	0,015
345,2	0,015
345,6	0,015
346,1	0,015
346,5	0,016
347	0,015
347,5	0,016
347,9	0,016
348,4	0,016
348,8	0,015
349,3	0,015
349,8	0,015
350,2	0,015
350,7	0,015
351,1	0,015
351,6	0,015
352	0,015
352,5	0,015
353	0,015
353,4	0,015
353,9	0,014
354,3	0,014
354,8	0,014
355,3	0,014
355,7	0,014
356,2	0,014
356,6	0,014
357,1	0,014
357,5	0,014
358	0,014
358,5	0,014
358,9	0,014
359,4	0,014
359,8	0,014
360,3	0,014
360,8	0,015
361,2	0,015
361,7	0,015
362,1	0,015
362,6	0,014
363	0,015
363,5	0,015
364	0,014
364,4	0,014
364,9	0,014
365,3	0,014
365,8	0,014
366,3	0,014
366,7	0,014
367,2	0,014
367,6	0,014
368,1	0,013
368,5	0,013
369	0,012
369,5	0,012
369,9	0,012
370,4	0,012
370,8	0,012
371,3	0,013
371,7	0,012
372,2	0,013
372,7	0,013
373,1	0,013
373,6	0,013
374	0,013
374,5	0,013
374,9	0,013
375,4	0,013
375,9	0,013
376,3	0,013
376,8	0,012
377,2	0,012
377,7	0,012
378,2	0,012
378,6	0,012
379,1	0,011
379,5	0,011
380	0,011
380,4	0,011
380,9	0,011
381,4	0,011
381,8	0,01
382,3	0,011
382,7	0,01
383,2	0,011
383,6	0,01
384,1	0,01
384,6	0,01
385	0,011
385,5	0,011
385,9	0,011
386,4	0,011
386,8	0,012
387,3	0,012
387,7	0,012
388,2	0,012
388,7	0,012
389,1	0,012
389,6	0,012
390	0,012
390,5	0,012
390,9	0,011
391,4	0,011
391,9	0,011
392,3	0,011
392,8	0,011
393,2	0,011
393,7	0,011
394,1	0,011
394,6	0,011
395,1	0,011
395,5	0,011
396	0,011
396,4	0,011
396,9	0,011
397,3	0,011
397,8	0,011
398,2	0,01
398,7	0,01
399,2	0,01
399,6	0,01
400,1	0,01
400,5	0,01
401	0,01
401,4	0,01
401,9	0,009
402,4	0,009
402,8	0,009
403,3	0,009
403,7	0,009
404,2	0,009
404,6	0,009
405,1	0,009
405,5	0,009
406	0,009
406,5	0,009
406,9	0,009
407,4	0,009
407,8	0,009
408,3	0,009
408,7	0,009
409,2	0,009
409,6	0,008
410,1	0,008
410,6	0,007
411	0,008
411,5	0,008
411,9	0,008
412,4	0,009
412,8	0,009
413,3	0,01
413,7	0,009
414,2	0,01
414,7	0,01
415,1	0,01
415,6	0,01
416	0,009
416,5	0,01
416,9	0,01
417,4	0,009
417,8	0,009
418,3	0,009
418,8	0,009
419,2	0,009
419,7	0,009
420,1	0,01
420,6	0,01
421	0,01
421,5	0,01
421,9	0,01
422,4	0,01
422,8	0,01
423,3	0,009
423,8	0,009
424,2	0,009
424,7	0,009
425,1	0,009
425,6	0,008
426	0,008
426,5	0,008
426,9	0,008
427,4	0,009
427,9	0,009
428,3	0,009
428,8	0,009
429,2	0,009
429,7	0,009
430,1	0,009
430,6	0,008
431	0,008
431,5	0,008
431,9	0,008
432,4	0,008
432,8	0,008
433,3	0,008
433,8	0,008
434,2	0,008
434,7	0,008
435,1	0,008
435,6	0,008
436	0,008
436,5	0,008
436,9	0,008
437,4	0,008
437,8	0,008
438,3	0,007
438,8	0,008
439,2	0,008
439,7	0,008
440,1	0,009
440,6	0,009
441	0,009
441,5	0,009
441,9	0,009
442,4	0,009
442,8	0,008
443,3	0,008
443,7	0,008
444,2	0,008
444,7	0,008
445,1	0,008
445,6	0,008
446	0,009
446,5	0,008
446,9	0,008
447,4	0,009
447,8	0,009
448,3	0,009
448,7	0,009
449,2	0,008
449,6	0,008
450,1	0,008
450,6	0,008
451	0,008
451,5	0,008
451,9	0,008
452,4	0,008
452,8	0,008
453,3	0,008
453,7	0,008
454,2	0,008
454,6	0,008
455,1	0,008
455,5	0,008
456	0,008
456,4	0,007
456,9	0,007
457,3	0,008
457,8	0,007
458,3	0,007
458,7	0,007
459,2	0,008
459,6	0,008
460,1	0,008
460,5	0,008
461	0,008
461,4	0,008
461,9	0,009
462,3	0,008
462,8	0,008
463,2	0,008
463,7	0,008
464,1	0,008
464,6	0,007
465	0,007
465,5	0,007
466	0,008
466,4	0,008
466,9	0,008
467,3	0,007
467,8	0,008
468,2	0,007
468,7	0,007
469,1	0,007
469,6	0,007
470	0,007
470,5	0,007
470,9	0,007
471,4	0,008
471,8	0,008
472,3	0,008
472,7	0,008
473,2	0,008
473,6	0,008
474,1	0,008
474,5	0,008
475	0,008
475,4	0,008
475,9	0,008
476,4	0,007
476,8	0,007
477,3	0,007
477,7	0,007
478,2	0,007
478,6	0,007
479,1	0,007
479,5	0,007
480	0,007
480,4	0,007
480,9	0,008
481,3	0,008
481,8	0,007
482,2	0,008
482,7	0,007
483,1	0,008
483,6	0,007
484	0,007
484,5	0,007
484,9	0,007
485,4	0,007
485,8	0,007
486,3	0,007
486,7	0,007
487,2	0,007
487,6	0,007
488,1	0,007
488,5	0,007
489	0,007
489,4	0,007
489,9	0,007
490,4	0,006
490,8	0,007
491,3	0,007
491,7	0,008
492,2	0,008
492,6	0,009
493,1	0,009
493,5	0,009
494	0,009
494,4	0,008
494,9	0,007
495,3	0,007
495,8	0,006
496,2	0,006
496,7	0,006
497,1	0,006
497,6	0,006
498	0,006
498,5	0,007
498,9	0,007
499,4	0,007
499,8	0,006
500,3	0,006
500,7	0,007
501,2	0,006
501,6	0,006
502,1	0,006
502,5	0,006
503	0,006
503,4	0,006
503,9	0,007
504,3	0,007
504,8	0,007
505,2	0,007
505,7	0,007
506,1	0,007
506,6	0,006
507	0,005
507,5	0,005
507,9	0,005
508,4	0,005
508,8	0,005
509,3	0,005
509,7	0,005
510,2	0,005
510,6	0,006
511,1	0,006
511,5	0,006
512	0,006
512,4	0,006
512,9	0,006
513,3	0,006
513,8	0,005
514,2	0,006
514,7	0,006
515,1	0,006
515,6	0,005
516	0,005
516,5	0,005
516,9	0,006
517,4	0,005
517,8	0,005
518,3	0,005
518,7	0,005
519,2	0,005
519,6	0,005
520,1	0,005
520,5	0,005
521	0,005
521,4	0,005
521,9	0,006
522,3	0,006
522,8	0,005
523,2	0,005
523,7	0,006
524,1	0,006
524,6	0,005
525	0,005
525,5	0,005
525,9	0,005
526,4	0,005
526,8	0,005
527,3	0,005
527,7	0,005
528,2	0,005
528,6	0,005
529,1	0,004
529,5	0,004
530	0,004
530,4	0,004
530,9	0,004
531,3	0,005
531,8	0,005
532,2	0,005
532,6	0,005
533,1	0,005
533,5	0,005
534	0,005
534,4	0,005
534,9	0,005
535,3	0,005
535,8	0,005
536,2	0,004
536,7	0,005
537,1	0,005
537,6	0,005
538	0,005
538,5	0,005
538,9	0,005
539,4	0,006
539,8	0,005
540,3	0,005
540,7	0,004
541,2	0,004
541,6	0,004
542,1	0,003
542,5	0,003
543	0,003
543,4	0,003
543,9	0,003
544,3	0,004
544,8	0,003
545,2	0,003
545,7	0,003
546,1	0,004
546,5	0,004
547	0,004
547,4	0,004
547,9	0,004
548,3	0,004
548,8	0,004
549,2	0,004
549,7	0,004
550,1	0,004
550,6	0,004
551	0,004
551,5	0,005
551,9	0,004
552,4	0,005
552,8	0,004
553,3	0,004
553,7	0,004
554,2	0,004
554,6	0,003
555,1	0,003
555,5	0,003
555,9	0,003
556,4	0,003
556,8	0,003
557,3	0,003
557,7	0,003
558,2	0,003
558,6	0,003
559,1	0,003
559,5	0,003
560	0,003
560,4	0,003
560,9	0,003
561,3	0,003
561,8	0,003
562,2	0,003
562,7	0,003
563,1	0,002
563,6	0,002
564	0,002
564,4	0,003
564,9	0,003
565,3	0,003
565,8	0,003
566,2	0,003
566,7	0,003
567,1	0,003
567,6	0,003
568	0,003
568,5	0,003
568,9	0,003
569,4	0,003
569,8	0,003
570,3	0,003
570,7	0,002
571,1	0,002
571,6	0,002
572	0,002
572,5	0,003
572,9	0,003
573,4	0,003
573,8	0,003
574,3	0,003
574,7	0,003
575,2	0,003
575,6	0,003
576,1	0,002
576,5	0,003
576,9	0,003
577,4	0,003
577,8	0,003
578,3	0,003
578,7	0,003
579,2	0,003
579,6	0,003
580,1	0,003
580,5	0,003
581	0,003
581,4	0,003
581,9	0,003
582,3	0,003
582,7	0,003
583,2	0,003
583,6	0,003
584,1	0,003
584,5	0,003
585	0,003
585,4	0,003
585,9	0,003
586,3	0,003
586,8	0,003
587,2	0,003
587,6	0,003
588,1	0,003
588,5	0,003
589	0,003
589,4	0,003
589,9	0,003
590,3	0,003
590,8	0,003
591,2	0,003
591,7	0,003
592,1	0,003
592,5	0,002
593	0,002
593,4	0,002
593,9	0,002
594,3	0,002
594,8	0,002
595,2	0,002
595,7	0,002
596,1	0,002
596,6	0,002
597	0,002
597,4	0,002
597,9	0,003
598,3	0,002
598,8	0,002
599,2	0,002
599,7	0,002
600,1	0,002
600,6	0,002
601	0,002
601,4	0,002
601,9	0,002
602,3	0,002
602,8	0,002
603,2	0,002
603,7	0,002
604,1	0,002
604,6	0,002
605	0,002
605,4	0,002
605,9	0,002
606,3	0,002
606,8	0,002
607,2	0,002
607,7	0,001
608,1	0,001
608,6	0,001
609	0,001
609,4	0,001
609,9	0,001
610,3	0,001
610,8	0,001
611,2	0,001
611,7	0,001
612,1	0,002
612,6	0,002
613	0,002
613,4	0,002
613,9	0,002
614,3	0,002
614,8	0,002
615,2	0,001
615,7	0,001
616,1	0,001
616,6	0,002
617	0,002
617,4	0,002
617,9	0,002
618,3	0,002
618,8	0,002
619,2	0,002
619,7	0,002
620,1	0,002
620,5	0,002
621	0,002
621,4	0,002
621,9	0,002
622,3	0,002
622,8	0,002
623,2	0,002
623,6	0,002
624,1	0,002
624,5	0,001
625	0,001
625,4	0,001
625,9	0,001
626,3	0,001
626,8	0,001
627,2	0,002
627,6	0,002
628,1	0,002
628,5	0,002
629	0,002
629,4	0,002
629,9	0,002
630,3	0,002
630,7	0,002
631,2	0,002
631,6	0,001
632,1	0,001
632,5	0,002
633	0,001
633,4	0,001
633,8	0,002
634,3	0,002
634,7	0,002
635,2	0,002
635,6	0,002
636,1	0,002
636,5	0,002
636,9	0,002
637,4	0,001
637,8	0,001
638,3	0,001
638,7	0,001
639,2	0,001
639,6	0,001
640	0,001
640,5	0,001
640,9	0,002
641,4	0,002
641,8	0,001
642,2	0,001
642,7	0,001
643,1	0,001
643,6	0,001
644	0,001
644,5	0,001
644,9	0,002
645,3	0,002
645,8	0,002
646,2	0,001
646,7	0,002
647,1	0,001
647,6	0,001
648	0,001
648,4	0,001
648,9	0,001
649,3	0,001
649,8	0,001
650,2	0,002
650,6	0,001
651,1	0,001
651,5	0,001
652	0,001
652,4	0,001
652,9	0,001
653,3	0,001
653,7	0,001
654,2	0,001
654,6	0
655,1	0
655,5	0,001
655,9	0,001
656,4	0,001
656,8	0,001
657,3	0,001
657,7	0,001
658,2	0,002
658,6	0,001
659	0
659,5	0
659,9	-0
660,4	-0
660,8	-0,001
661,2	-0,001
661,7	-0,001
662,1	-0,001
662,6	-0,001
663	-0
663,4	-0
663,9	-0
664,3	-0
664,8	0
665,2	0
665,6	0
666,1	0
666,5	0
667	-0
667,4	-0
667,9	-0
668,3	0
668,7	0
669,2	0
669,6	0
670,1	0
670,5	0
670,9	0
671,4	0
671,8	0
672,3	-0
672,7	-0
673,1	-0
673,6	0
674	-0
674,5	0
674,9	0
675,3	0,001
675,8	0,001
676,2	0,001
676,7	0,002
677,1	0,002
677,5	0,002
678	0,002
678,4	0,001
678,9	0,001
679,3	0,001
679,7	0,001
680,2	0,001
680,6	0,001
681,1	0
681,5	0
681,9	0
682,4	0
682,8	0,001
683,3	0,001
683,7	0,001
684,1	0,001
684,6	0,001
685	0,001
685,5	0,001
685,9	0,001
686,3	0
686,8	0
687,2	0,001
687,7	0,001
688,1	0,001
688,5	0,001
689	0,001
689,4	0,001
689,9	0,001
690,3	0
690,7	0
691,2	0
691,6	0
692	-0
692,5	-0
692,9	-0
693,4	-0
693,8	-0
694,2	-0
694,7	0
695,1	0
695,6	0,001
696	0,001
696,4	0,001
696,9	0,001
697,3	0,001
697,8	0,001
698,2	0,001
698,6	0,001
699,1	0,001
699,5	0,001
699,9	0
700,4	0
700,8	0
701,3	0
701,7	0
702,1	0
702,6	-0
703	-0
703,5	0
703,9	-0
704,3	0
704,8	-0
705,2	0
705,6	0
706,1	0,001
706,5	0
707	0,001
707,4	0
707,8	0,001
708,3	0
708,7	0
709,2	-0
709,6	0
710	0
710,5	0
710,9	0,001
711,3	0,001
711,8	0,001
712,2	0,001
712,7	0,001
713,1	0,001
713,5	0,001
714	0,001
714,4	0,001
714,8	0,001
715,3	0,001
715,7	0,001
716,2	0,001
716,6	0,001
717	0,001
717,5	0,001
717,9	0,001
718,3	0,001
718,8	0,001
719,2	0,001
719,7	0,001
720,1	0,001
720,5	0,001
721	0,001
721,4	0,001
721,8	0,001
722,3	0,001
722,7	0
723,2	0
723,6	0
724	0
724,5	0,001
724,9	0,001
725,3	0,001
725,8	0,001
726,2	0,001
726,7	0,001
727,1	0,001
727,5	0,001
728	0,001
728,4	0
728,8	0
729,3	-0
729,7	0
730,1	0
730,6	0
731	0
731,5	0,001
731,9	0,001
732,3	0,001
732,8	0,001
733,2	0,001
733,6	0,001
734,1	0,001
734,5	0
734,9	0
735,4	0,001
735,8	0,001
736,3	0
736,7	0
737,1	0
737,6	0
738	0,001
738,4	0
738,9	0
739,3	0
739,7	0
740,2	0
740,6	0
741,1	0
741,5	0
741,9	0
742,4	0
742,8	0,001
743,2	0,001
743,7	0
744,1	0
744,5	0
745	0
745,4	-0
745,8	-0
746,3	-0
746,7	-0
747,2	-0
747,6	0
748	0
748,5	0,001
748,9	0,001
749,3	0,001
749,8	0,001
750,2	0,001
750,6	0,001
751,1	0,001
751,5	0,001
751,9	0,001
752,4	0,001
752,8	0,001
753,3	0,001
753,7	0,001
754,1	0,001
754,6	0
755	0
755,4	0
755,9	0
756,3	0
756,7	-0
757,2	0
757,6	0
758	0,001
758,5	0,001
758,9	0,001
759,3	0,001
759,8	0,001
760,2	0
760,6	0,001
761,1	0
761,5	0
761,9	0
762,4	0
762,8	0,001
763,3	0,001
763,7	0
764,1	0,001
764,6	0,001
765	0,001
765,4	0,001
765,9	0
766,3	0
766,7	0
767,2	0,001
767,6	0,001
768	0,001
768,5	0,001
768,9	0,001
769,3	0,001
769,8	0,001
770,2	0
770,6	0
771,1	0
771,5	0
771,9	-0
772,4	0
772,8	0
773,2	0
773,7	0
774,1	0,001
774,5	0
775	0
775,4	0
775,8	0
776,3	0
776,7	0
777,1	0
777,6	0
778	0,001
778,4	0,001
778,9	0,001
779,3	0,001
779,7	0,001
780,2	0,001
780,6	0,001
781	0,001
781,5	0,001
781,9	0,001
782,3	0
782,8	0
783,2	0,001
783,6	0
784,1	-0
784,5	-0
784,9	-0
785,4	0
785,8	0
786,2	0
786,7	0
787,1	0
787,5	0
788	0,001
788,4	0,001
788,8	0,001
789,3	0,001
789,7	0,001
790,1	0,001
790,6	0,001
791	0,001
791,4	0,001
791,9	0,001
792,3	0,001
792,7	0,001
793,2	0,001
793,6	0
794	0
794,5	0
794,9	0
795,3	0,001
795,8	0,001
796,2	0,001
796,6	0,001
797,1	0,001
797,5	0,001
797,9	0,001
798,4	0,001
798,8	0,001
799,2	0
799,7	0
800,1	0
800,5	0
801	0
801,4	0
801,8	0,001
802,2	0,001
802,7	0,001
803,1	0,001
803,5	0,001
804	0
804,4	0
804,8	0
805,3	0
805,7	0
806,1	0,001
806,6	0,001
807	0,001
807,4	0,001
807,9	0,001
808,3	0,001
808,7	0,001
809,2	0,001
809,6	0,001
810	0,001
810,4	0,001
810,9	0,001
811,3	0,001
811,7	0,001
812,2	0,001
812,6	0,001
813	0
813,5	0
813,9	0
814,3	0
814,8	0
815,2	0
815,6	-0
816,1	-0
816,5	-0,001
816,9	-0,001
817,3	-0,001
817,8	-0,001
818,2	-0,001
818,6	-0
819,1	-0
819,5	-0
819,9	-0
820,4	-0,001
820,8	-0,001
821,2	-0,001
821,7	-0,001
822,1	-0,001
822,5	-0,001
822,9	-0,001
823,4	-0,001
823,8	-0
824,2	-0
824,7	0
825,1	0,001
825,5	0,001
826	0,001
826,4	0,001
826,8	0,001
827,3	0
827,7	0
828,1	-0
828,5	0
829	0
829,4	0
829,8	0
830,3	0
830,7	-0
831,1	0
831,6	0
832	-0
832,4	0
832,8	-0
833,3	0
833,7	0
834,1	0
834,6	0
835	0
835,4	-0
835,8	-0
836,3	0
836,7	-0
837,1	-0
837,6	-0
838	-0
838,4	-0
838,9	-0
839,3	-0,001
839,7	-0,001
840,1	-0
840,6	-0,001
841	-0
841,4	-0
841,9	0
842,3	0
842,7	0
843,1	0
843,6	0,001
844	0,001
844,4	0,001
844,9	0,001
845,3	0
845,7	0
846,2	-0
846,6	-0
847	-0
847,4	-0
847,9	-0,001
848,3	-0
848,7	-0
849,2	-0
849,6	-0
850	-0
850,4	-0
850,9	-0
851,3	-0
851,7	0
852,2	0,001
852,6	0,001
853	0,001
853,4	0
853,9	0
854,3	0
854,7	0
855,2	0
855,6	0
856	0,001
856,4	0,001
856,9	0,001
857,3	0,001
857,7	0,001
858,2	0,001
858,6	0,001
859	0,001
859,4	0,001
859,9	0,001
860,3	0,001
860,7	0,001
861,1	0
861,6	0,001
862	0
862,4	-0
862,9	0
863,3	0
863,7	0
864,1	0,001
864,6	0,001
865	0,001
865,4	0,001
865,9	0,001
866,3	0,001
866,7	0,001
867,1	0
867,6	0
868	0
868,4	0
868,8	0,001
869,3	0,001
869,7	0,001
870,1	0,001
870,6	0,001
871	0,001
871,4	0
871,8	-0
872,3	-0
872,7	-0
873,1	-0
873,5	-0
874	-0
874,4	-0
874,8	-0
875,3	0
875,7	-0
876,1	-0
876,5	-0
877	-0,001
877,4	-0
877,8	-0
878,2	0
878,7	0
879,1	0
879,5	0
879,9	0
880,4	0
880,8	0
881,2	0
881,7	0
882,1	0,001
882,5	0,001
882,9	0,001
883,4	0,001
883,8	0,001
884,2	0,001
884,6	0,001
885,1	0,001
885,5	0
885,9	0
886,3	0
886,8	0
887,2	0
887,6	0,001
888	0,001
888,5	0,001
888,9	0,001
889,3	0,001
889,8	0,001
890,2	0,001
890,6	0,001
891	0,001
891,5	0,001
891,9	0,002
892,3	0,002
892,7	0,001
893,2	0,001
893,6	0,001
894	0,001
894,4	0,001
894,9	0,001
895,3	0
895,7	0
896,1	0
896,6	0
897	0
897,4	0
897,8	0
898,3	0
898,7	0
899,1	0,001
899,5	0
900	0
900,4	0
900,8	-0
901,2	0
901,7	0
902,1	-0
902,5	0
902,9	0
903,4	0
903,8	0
904,2	0
904,6	0,001
905,1	0,001
905,5	0,001
905,9	0,001
906,3	0,002
906,8	0,002
907,2	0,002
907,6	0,002
908	0,002
908,5	0,002
908,9	0,002
909,3	0,002
909,7	0,001
910,2	0,001
910,6	0,001
911	0,001
911,4	0,002
911,9	0,001
912,3	0,001
912,7	0,001
913,1	0,001
913,6	0,001
914	0,001
914,4	0,001
914,8	0
915,3	0
915,7	0,001
916,1	0
916,5	0
916,9	0
917,4	0
917,8	0
918,2	-0
918,6	-0,001
919,1	-0
919,5	-0
919,9	-0
920,3	-0
920,8	0
921,2	0,001
921,6	0,001
922	0,001
922,5	0,002
922,9	0,002
923,3	0,001
923,7	0,001
924,2	0,001
924,6	0,001
925	0
925,4	0
925,8	0
926,3	0,001
926,7	0,001
927,1	0,001
927,5	0,001
928	0,001
928,4	0,001
928,8	0,001
929,2	0,001
929,7	0,001
930,1	0,002
930,5	0,001
930,9	0,001
931,3	0,001
931,8	0,001
932,2	0,001
932,6	0,001
933	0,001
933,5	0,001
933,9	0,002
934,3	0,001
934,7	0,001
935,2	0,001
935,6	0,001
936	0,001
936,4	0,001
936,8	0
937,3	0
937,7	0
938,1	0,001
938,5	0,001
939	0,001
939,4	0,001
939,8	0,001
940,2	0,001
940,6	0,001
941,1	0,001
941,5	0,001
941,9	0,001
942,3	0,001
942,8	0,001
943,2	0,001
943,6	0,001
944	0,001
944,4	0,001
944,9	0,001
945,3	0,001
945,7	0,001
946,1	0,001
946,6	0
947	0
947,4	-0
947,8	-0,001
948,2	-0,001
948,7	-0
949,1	-0
949,5	-0
949,9	-0
950,3	0
950,8	0,001
951,2	0,001
951,6	0,001
952	0,001
952,5	0,001
952,9	0,001
953,3	0,001
953,7	0,001
954,1	0,001
954,6	0,001
955	0,001
955,4	0
955,8	0
956,2	0
956,7	0
957,1	0
957,5	0
957,9	0,001
958,3	0,001
958,8	0,001
959,2	0,001
959,6	0,001
960	0,001
960,5	0,001
960,9	0
961,3	0,001
961,7	0,001
962,1	0,001
962,6	0,002
963	0,001
963,4	0,001
963,8	0,002
964,2	0,002
964,7	0,003
965,1	0,003
965,5	0,003
965,9	0,003
966,3	0,003
966,8	0,002
967,2	0,002
967,6	0,002
968	0,001
968,4	0,001
968,9	0,001
969,3	0,001
969,7	0,002
970,1	0,001
970,5	0,002
971	0,002
971,4	0,001
971,8	0,001
972,2	0
972,6	0
973,1	0
973,5	-0
973,9	-0
974,3	-0
974,7	-0
975,2	-0
975,6	-0,001
976	-0,001
976,4	-0,001
976,8	-0,001
977,3	-0,001
977,7	-0
978,1	-0
978,5	-0
978,9	0
979,4	0
979,8	0,001
980,2	0,001
980,6	0,001
981	0
981,5	0
981,9	0,001
982,3	0,001
982,7	0
983,1	0
983,6	0
984	0
984,4	0
984,8	-0
985,2	-0
985,6	-0
986,1	0,001
986,5	0,001
986,9	0,001
987,3	0,001
987,7	0,002
988,2	0,002
988,6	0,002
989	0,001
989,4	0,001
989,8	0,001
990,3	0,001
990,7	0
991,1	-0
991,5	-0
991,9	-0
992,3	-0
992,8	-0
993,2	-0
993,6	-0
994	0
994,4	-0
994,9	-0
995,3	0
995,7	0
996,1	0
996,5	-0
996,9	0
997,4	0,001
997,8	-0
998,2	-0,001
998,6	-0,001
999	-0,001
999,5	-0,001
999,9	-0,001
1000,3	-0,001
1000,7	-0,001
1001,1	-0
1001,5	-0
1002	0
1002,4	0,001
1002,8	0
1003,2	0
1003,6	0
1004	0
1004,5	0
1004,9	0
1005,3	0
1005,7	0
1006,1	0,001
1006,6	0,001
1007	0
1007,4	-0
1007,8	0
1008,2	-0
1008,6	-0,001
1009,1	-0,001
1009,5	-0,001
1009,9	-0
1010,3	-0
1010,7	-0
1011,1	0,001
1011,6	0,001
1012	0,001
1012,4	0,001
1012,8	0,001
1013,2	0,001
1013,6	0,001
1014,1	0,001
1014,5	0,001
1014,9	0,001
1015,3	0,002
1015,7	0,001
1016,1	0,002
1016,6	0,002
1017	0,001
1017,4	0,002
1017,8	0,001
1018,2	0,001
1018,6	0,001
1019,1	0,001
1019,5	0,001
1019,9	0
1020,3	-0
1020,7	-0,001
1021,1	0
1021,6	-0
1022	-0
1022,4	-0
1022,8	0
1023,2	0,001
1023,6	0,002
1024,1	0,002
1024,5	0,002
1024,9	0,002
1025,3	0,001
1025,7	0,001
1026,1	-0
1026,6	-0,001
1027	-0,001
1027,4	-0,001
1027,8	-0,001
1028,2	-0
1028,6	-0
1029	0
1029,5	0
1029,9	0,001
1030,3	0,001
1030,7	0,001
1031,1	0,002
1031,5	0,002
1032	0,002
1032,4	0,001
1032,8	0,001
1033,2	0,001
1033,6	0
1034	-0
1034,4	-0,001
1034,9	-0,001
1035,3	-0,001
1035,7	-0
1036,1	-0,001
1036,5	-0
1036,9	-0,001
1037,4	-0
1037,8	0
1038,2	0,001
1038,6	0
1039	0
1039,4	0
1039,8	0,001
1040,3	0,001
1040,7	-0
1041,1	-0
1041,5	-0
1041,9	-0
1042,3	0
1042,7	-0
1043,2	0
1043,6	0,001
1044	0,001
1044,4	0
1044,8	0,001
1045,2	0,001
1045,6	0,001
1046,1	0,001
1046,5	0
1046,9	0,001
1047,3	0,001
1047,7	-0
1048,1	-0,001
1048,5	-0,001
1049	-0,001
1049,4	-0,001
1049,8	-0,001
1050,2	-0,001
1050,6	-0,001
1051	-0,001
1051,4	-0
1051,9	-0
1052,3	0,001
1052,7	0,001
1053,1	0,001
1053,5	0,002
1053,9	0,002
1054,3	0,002
1054,8	0,002
1055,2	0,002
1055,6	0,001
1056	0
1056,4	-0,001
1056,8	-0,001
1057,2	-0,001
1057,6	-0,001
1058,1	-0,001
1058,5	-0,001
1058,9	-0,001
1059,3	0
1059,7	-0
1060,1	-0,001
1060,5	-0
1061	-0
1061,4	-0,001
1061,8	-0
1062,2	-0,001
1062,6	-0,001
1063	-0
1063,4	-0,001
1063,8	-0,001
1064,3	-0,001
1064,7	-0,002
1065,1	-0,001
1065,5	-0,002
1065,9	-0,002
1066,3	-0,001
1066,7	-0,002
1067,1	-0,002
1067,6	-0,001
1068	-0,001
1068,4	-0
1068,8	0
1069,2	-0
1069,6	0,001
1070	-0
1070,4	0,001
1070,9	0,001
1071,3	0,001
1071,7	0,001
1072,1	0
1072,5	-0
1072,9	-0
1073,3	-0,001
1073,7	-0,002
1074,2	-0,001
1074,6	-0,001
1075	-0,001
1075,4	-0,001
1075,8	-0,001
1076,2	-0,001
1076,6	-0,001
1077	-0,002
1077,5	-0,001
1077,9	-0,002
1078,3	-0,001
1078,7	-0,001
1079,1	0
1079,5	-0,001
1079,9	-0
1080,3	-0,001
1080,7	-0
1081,2	-0
1081,6	0,001
1082	-0
1082,4	0,001
1082,8	0,001
1083,2	0,003
1083,6	0,002
1084	0,001
1084,5	-0,001
1084,9	0,003
1085,3	0,003
1085,7	0,002
1086,1	0,001
1086,5	0,002
1086,9	0,001
1087,3	0,003
1087,7	0,002
1088,2	0,001
1088,6	0,002
1089	0,003
1089,4	0,002
1089,8	0,004
1090,2	0,003
1090,6	-0
1091	0,001
1091,4	-0,003
1091,9	-0,005
1092,3	-0,006
1092,7	-0,006
1093,1	-0,008
1093,5	-0,007
1093,9	-0,009
1094,3	-0,01
1094,7	-0,013
1095,1	-0,011
1095,5	-0,016
1096	-0,011
1096,4	-0,014
1096,8	-0,015
1097,2	-0,008
1097,6	-0,004
1098	-0,005
1098,4	-0
1098,8	-0,008
1099,2	-0,003
1099,6	0,003
1100,1	0,002
1100,5	-0,001
1100,9	0,003
1101,3	0
1101,7	0,003
1102,1	-0,001
1102,5	-0,006
1102,9	-0,012
1103,3	-0,013
1103,7	-0,022
1104,2	-0,02
1104,6	-0,017
1105	-0,019
1105,4	-0,013
1105,8	-0,002
1106,2	0,003
1106,6	0,019
1107	0,024
1107,4	0,035
1107,8	0,091
1108,3	-0
