Data from Absorbance_023.txt Node
Date: Fri Nov 13 12:57:09 MSK 2020
User: vat
Spectrometer: MAYP114033
Trigger mode: 0
Integration Time (sec): 8,000000E-3
Scans to average: 10
Electric dark correction enabled: true
Nonlinearity correction enabled: false
Boxcar width: 3
XAxis mode: Wavelengths
Number of Pixels in Spectrum: 2068
>>>>>Begin Spectral Data<<<<<
199,4	0,248
199,9	-0,155
200,4	-0,062
200,8	-0,004
201,3	-0,047
201,8	-0,019
202,2	-0,012
202,7	-0,006
203,2	0,007
203,6	0,023
204,1	0,025
204,6	0,023
205	0,019
205,5	0,031
206	0,035
206,4	0,021
206,9	-0,003
207,4	-0,018
207,8	0,004
208,3	0,014
208,8	0,021
209,2	0,01
209,7	0,016
210,2	0,038
210,6	0,049
211,1	0,041
211,5	0,037
212	0,031
212,5	0,028
212,9	0,035
213,4	0,024
213,9	0,016
214,3	0,016
214,8	0,007
215,3	0,013
215,7	0,02
216,2	0,024
216,7	0,022
217,1	0,014
217,6	0,026
218,1	0,052
218,5	0,054
219	0,054
219,5	0,06
219,9	0,046
220,4	0,061
220,9	0,039
221,3	0,024
221,8	0,009
222,3	0,012
222,7	0,008
223,2	0,041
223,6	0,043
224,1	0,06
224,6	0,054
225	0,064
225,5	0,06
226	0,057
226,4	0,053
226,9	0,04
227,4	0,035
227,8	0,043
228,3	0,043
228,8	0,044
229,2	0,042
229,7	0,019
230,2	0,033
230,6	0,038
231,1	0,043
231,5	0,047
232	0,056
232,5	0,06
232,9	0,069
233,4	0,055
233,9	0,06
234,3	0,071
234,8	0,073
235,3	0,073
235,7	0,066
236,2	0,071
236,7	0,075
237,1	0,071
237,6	0,056
238,1	0,062
238,5	0,065
239	0,073
239,4	0,086
239,9	0,102
240,4	0,103
240,8	0,124
241,3	0,129
241,8	0,132
242,2	0,148
242,7	0,158
243,2	0,168
243,6	0,18
244,1	0,184
244,6	0,183
245	0,205
245,5	0,214
245,9	0,21
246,4	0,222
246,9	0,241
247,3	0,259
247,8	0,271
248,3	0,293
248,7	0,307
249,2	0,322
249,7	0,338
250,1	0,359
250,6	0,374
251	0,399
251,5	0,412
252	0,432
252,4	0,451
252,9	0,47
253,4	0,489
253,8	0,501
254,3	0,516
254,8	0,534
255,2	0,55
255,7	0,567
256,1	0,582
256,6	0,599
257,1	0,618
257,5	0,635
258	0,654
258,5	0,673
258,9	0,695
259,4	0,716
259,9	0,736
260,3	0,758
260,8	0,782
261,2	0,803
261,7	0,825
262,2	0,847
262,6	0,871
263,1	0,895
263,6	0,919
264	0,941
264,5	0,965
264,9	0,991
265,4	1,015
265,9	1,036
266,3	1,06
266,8	1,085
267,3	1,111
267,7	1,136
268,2	1,162
268,7	1,186
269,1	1,213
269,6	1,238
270	1,265
270,5	1,287
271	1,311
271,4	1,335
271,9	1,358
272,4	1,38
272,8	1,4
273,3	1,42
273,7	1,442
274,2	1,461
274,7	1,477
275,1	1,5
275,6	1,52
276,1	1,542
276,5	1,558
277	1,574
277,4	1,59
277,9	1,6
278,4	1,604
278,8	1,616
279,3	1,625
279,8	1,636
280,2	1,644
280,7	1,65
281,1	1,66
281,6	1,671
282,1	1,671
282,5	1,674
283	1,675
283,4	1,675
283,9	1,67
284,4	1,672
284,8	1,664
285,3	1,659
285,8	1,653
286,2	1,645
286,7	1,635
287,1	1,623
287,6	1,606
288,1	1,593
288,5	1,577
289	1,56
289,5	1,54
289,9	1,518
290,4	1,501
290,8	1,477
291,3	1,452
291,8	1,429
292,2	1,401
292,7	1,372
293,1	1,343
293,6	1,31
294,1	1,28
294,5	1,249
295	1,215
295,5	1,184
295,9	1,151
296,4	1,118
296,8	1,084
297,3	1,051
297,8	1,016
298,2	0,982
298,7	0,947
299,1	0,913
299,6	0,877
300,1	0,843
300,5	0,809
301	0,776
301,5	0,743
301,9	0,712
302,4	0,681
302,8	0,652
303,3	0,623
303,8	0,594
304,2	0,567
304,7	0,54
305,1	0,515
305,6	0,49
306,1	0,466
306,5	0,443
307	0,421
307,4	0,4
307,9	0,38
308,4	0,361
308,8	0,343
309,3	0,325
309,8	0,308
310,2	0,292
310,7	0,278
311,1	0,264
311,6	0,25
312,1	0,238
312,5	0,226
313	0,214
313,4	0,204
313,9	0,194
314,4	0,184
314,8	0,176
315,3	0,168
315,7	0,159
316,2	0,152
316,7	0,145
317,1	0,139
317,6	0,133
318	0,128
318,5	0,123
319	0,118
319,4	0,114
319,9	0,109
320,3	0,105
320,8	0,101
321,3	0,097
321,7	0,094
322,2	0,091
322,6	0,088
323,1	0,086
323,6	0,084
324	0,081
324,5	0,079
324,9	0,077
325,4	0,075
325,9	0,073
326,3	0,071
326,8	0,07
327,2	0,068
327,7	0,066
328,2	0,065
328,6	0,063
329,1	0,062
329,5	0,061
330	0,06
330,5	0,058
330,9	0,057
331,4	0,056
331,8	0,055
332,3	0,054
332,8	0,053
333,2	0,052
333,7	0,052
334,1	0,051
334,6	0,051
335,1	0,05
335,5	0,049
336	0,048
336,4	0,047
336,9	0,046
337,4	0,045
337,8	0,044
338,3	0,044
338,7	0,043
339,2	0,043
339,7	0,042
340,1	0,041
340,6	0,041
341	0,04
341,5	0,04
342	0,039
342,4	0,038
342,9	0,038
343,3	0,038
343,8	0,037
344,2	0,037
344,7	0,037
345,2	0,036
345,6	0,036
346,1	0,035
346,5	0,035
347	0,034
347,5	0,034
347,9	0,033
348,4	0,033
348,8	0,033
349,3	0,033
349,8	0,032
350,2	0,032
350,7	0,032
351,1	0,031
351,6	0,031
352	0,03
352,5	0,029
353	0,029
353,4	0,028
353,9	0,028
354,3	0,028
354,8	0,028
355,3	0,027
355,7	0,027
356,2	0,027
356,6	0,027
357,1	0,026
357,5	0,026
358	0,026
358,5	0,025
358,9	0,025
359,4	0,024
359,8	0,025
360,3	0,024
360,8	0,023
361,2	0,022
361,7	0,022
362,1	0,022
362,6	0,021
363	0,021
363,5	0,021
364	0,02
364,4	0,02
364,9	0,019
365,3	0,019
365,8	0,019
366,3	0,019
366,7	0,019
367,2	0,018
367,6	0,018
368,1	0,018
368,5	0,018
369	0,017
369,5	0,016
369,9	0,016
370,4	0,016
370,8	0,016
371,3	0,016
371,7	0,016
372,2	0,016
372,7	0,016
373,1	0,016
373,6	0,015
374	0,015
374,5	0,014
374,9	0,014
375,4	0,013
375,9	0,013
376,3	0,012
376,8	0,012
377,2	0,012
377,7	0,012
378,2	0,012
378,6	0,011
379,1	0,011
379,5	0,011
380	0,011
380,4	0,01
380,9	0,01
381,4	0,01
381,8	0,009
382,3	0,009
382,7	0,009
383,2	0,009
383,6	0,009
384,1	0,009
384,6	0,009
385	0,009
385,5	0,009
385,9	0,009
386,4	0,008
386,8	0,008
387,3	0,007
387,7	0,007
388,2	0,007
388,7	0,006
389,1	0,005
389,6	0,006
390	0,005
390,5	0,006
390,9	0,005
391,4	0,005
391,9	0,005
392,3	0,005
392,8	0,005
393,2	0,006
393,7	0,006
394,1	0,006
394,6	0,006
395,1	0,006
395,5	0,006
396	0,005
396,4	0,004
396,9	0,004
397,3	0,003
397,8	0,003
398,2	0,003
398,7	0,003
399,2	0,003
399,6	0,003
400,1	0,003
400,5	0,003
401	0,003
401,4	0,003
401,9	0,003
402,4	0,003
402,8	0,003
403,3	0,003
403,7	0,002
404,2	0,002
404,6	0,002
405,1	0,002
405,5	0,001
406	0,001
406,5	0,001
406,9	0,001
407,4	0,001
407,8	0,001
408,3	0
408,7	0
409,2	-0
409,6	0
410,1	-0
410,6	-0
411	-0,001
411,5	-0,001
411,9	-0
412,4	-0
412,8	-0
413,3	-0
413,7	-0
414,2	-0,001
414,7	-0,001
415,1	-0,001
415,6	-0,001
416	-0,001
416,5	-0,002
416,9	-0,001
417,4	-0,001
417,8	-0,001
418,3	-0,001
418,8	-0,002
419,2	-0,002
419,7	-0,002
420,1	-0,003
420,6	-0,003
421	-0,003
421,5	-0,003
421,9	-0,003
422,4	-0,002
422,8	-0,003
423,3	-0,003
423,8	-0,002
424,2	-0,003
424,7	-0,002
425,1	-0,002
425,6	-0,003
426	-0,003
426,5	-0,003
426,9	-0,003
427,4	-0,003
427,9	-0,003
428,3	-0,003
428,8	-0,003
429,2	-0,003
429,7	-0,003
430,1	-0,004
430,6	-0,004
431	-0,004
431,5	-0,005
431,9	-0,005
432,4	-0,005
432,8	-0,005
433,3	-0,005
433,8	-0,005
434,2	-0,005
434,7	-0,005
435,1	-0,005
435,6	-0,005
436	-0,005
436,5	-0,005
436,9	-0,005
437,4	-0,005
437,8	-0,005
438,3	-0,005
438,8	-0,005
439,2	-0,006
439,7	-0,006
440,1	-0,006
440,6	-0,007
441	-0,007
441,5	-0,007
441,9	-0,007
442,4	-0,007
442,8	-0,006
443,3	-0,006
443,7	-0,006
444,2	-0,006
444,7	-0,006
445,1	-0,006
445,6	-0,006
446	-0,006
446,5	-0,006
446,9	-0,006
447,4	-0,006
447,8	-0,006
448,3	-0,006
448,7	-0,006
449,2	-0,006
449,6	-0,007
450,1	-0,007
450,6	-0,008
451	-0,008
451,5	-0,008
451,9	-0,009
452,4	-0,008
452,8	-0,008
453,3	-0,008
453,7	-0,008
454,2	-0,008
454,6	-0,009
455,1	-0,008
455,5	-0,009
456	-0,009
456,4	-0,009
456,9	-0,009
457,3	-0,009
457,8	-0,009
458,3	-0,009
458,7	-0,009
459,2	-0,009
459,6	-0,009
460,1	-0,01
460,5	-0,01
461	-0,009
461,4	-0,01
461,9	-0,009
462,3	-0,009
462,8	-0,009
463,2	-0,009
463,7	-0,009
464,1	-0,009
464,6	-0,009
465	-0,009
465,5	-0,009
466	-0,01
466,4	-0,01
466,9	-0,009
467,3	-0,01
467,8	-0,01
468,2	-0,01
468,7	-0,01
469,1	-0,01
469,6	-0,01
470	-0,01
470,5	-0,01
470,9	-0,01
471,4	-0,01
471,8	-0,009
472,3	-0,01
472,7	-0,01
473,2	-0,009
473,6	-0,009
474,1	-0,009
474,5	-0,01
475	-0,01
475,4	-0,01
475,9	-0,011
476,4	-0,011
476,8	-0,011
477,3	-0,011
477,7	-0,011
478,2	-0,011
478,6	-0,011
479,1	-0,011
479,5	-0,011
480	-0,011
480,4	-0,011
480,9	-0,011
481,3	-0,011
481,8	-0,01
482,2	-0,011
482,7	-0,011
483,1	-0,011
483,6	-0,012
484	-0,012
484,5	-0,012
484,9	-0,013
485,4	-0,013
485,8	-0,013
486,3	-0,012
486,7	-0,012
487,2	-0,012
487,6	-0,011
488,1	-0,01
488,5	-0,01
489	-0,01
489,4	-0,01
489,9	-0,011
490,4	-0,011
490,8	-0,012
491,3	-0,012
491,7	-0,012
492,2	-0,012
492,6	-0,012
493,1	-0,012
493,5	-0,013
494	-0,012
494,4	-0,012
494,9	-0,013
495,3	-0,013
495,8	-0,013
496,2	-0,013
496,7	-0,013
497,1	-0,013
497,6	-0,013
498	-0,012
498,5	-0,012
498,9	-0,012
499,4	-0,012
499,8	-0,012
500,3	-0,012
500,7	-0,012
501,2	-0,012
501,6	-0,012
502,1	-0,012
502,5	-0,012
503	-0,012
503,4	-0,012
503,9	-0,013
504,3	-0,013
504,8	-0,013
505,2	-0,013
505,7	-0,013
506,1	-0,014
506,6	-0,014
507	-0,013
507,5	-0,013
507,9	-0,013
508,4	-0,013
508,8	-0,014
509,3	-0,013
509,7	-0,013
510,2	-0,013
510,6	-0,013
511,1	-0,013
511,5	-0,014
512	-0,013
512,4	-0,014
512,9	-0,014
513,3	-0,014
513,8	-0,015
514,2	-0,015
514,7	-0,015
515,1	-0,015
515,6	-0,015
516	-0,015
516,5	-0,015
516,9	-0,014
517,4	-0,014
517,8	-0,014
518,3	-0,014
518,7	-0,014
519,2	-0,014
519,6	-0,014
520,1	-0,014
520,5	-0,015
521	-0,014
521,4	-0,014
521,9	-0,014
522,3	-0,014
522,8	-0,014
523,2	-0,015
523,7	-0,014
524,1	-0,015
524,6	-0,015
525	-0,014
525,5	-0,015
525,9	-0,015
526,4	-0,015
526,8	-0,016
527,3	-0,016
527,7	-0,016
528,2	-0,016
528,6	-0,016
529,1	-0,017
529,5	-0,017
530	-0,017
530,4	-0,017
530,9	-0,017
531,3	-0,017
531,8	-0,017
532,2	-0,017
532,6	-0,017
533,1	-0,016
533,5	-0,016
534	-0,016
534,4	-0,016
534,9	-0,017
535,3	-0,017
535,8	-0,017
536,2	-0,017
536,7	-0,016
537,1	-0,017
537,6	-0,017
538	-0,016
538,5	-0,016
538,9	-0,017
539,4	-0,016
539,8	-0,017
540,3	-0,016
540,7	-0,017
541,2	-0,016
541,6	-0,017
542,1	-0,017
542,5	-0,017
543	-0,017
543,4	-0,017
543,9	-0,017
544,3	-0,017
544,8	-0,017
545,2	-0,016
545,7	-0,016
546,1	-0,016
546,5	-0,017
547	-0,016
547,4	-0,016
547,9	-0,016
548,3	-0,016
548,8	-0,016
549,2	-0,016
549,7	-0,016
550,1	-0,016
550,6	-0,017
551	-0,017
551,5	-0,018
551,9	-0,017
552,4	-0,017
552,8	-0,017
553,3	-0,018
553,7	-0,018
554,2	-0,018
554,6	-0,018
555,1	-0,017
555,5	-0,017
555,9	-0,017
556,4	-0,017
556,8	-0,017
557,3	-0,016
557,7	-0,016
558,2	-0,017
558,6	-0,017
559,1	-0,017
559,5	-0,017
560	-0,017
560,4	-0,018
560,9	-0,017
561,3	-0,018
561,8	-0,018
562,2	-0,017
562,7	-0,017
563,1	-0,018
563,6	-0,018
564	-0,018
564,4	-0,018
564,9	-0,018
565,3	-0,018
565,8	-0,018
566,2	-0,019
566,7	-0,019
567,1	-0,019
567,6	-0,019
568	-0,019
568,5	-0,019
568,9	-0,019
569,4	-0,019
569,8	-0,019
570,3	-0,019
570,7	-0,019
571,1	-0,019
571,6	-0,018
572	-0,018
572,5	-0,018
572,9	-0,018
573,4	-0,018
573,8	-0,018
574,3	-0,018
574,7	-0,019
575,2	-0,019
575,6	-0,019
576,1	-0,019
576,5	-0,019
576,9	-0,019
577,4	-0,019
577,8	-0,019
578,3	-0,019
578,7	-0,019
579,2	-0,019
579,6	-0,018
580,1	-0,018
580,5	-0,018
581	-0,018
581,4	-0,018
581,9	-0,018
582,3	-0,018
582,7	-0,018
583,2	-0,018
583,6	-0,018
584,1	-0,018
584,5	-0,018
585	-0,019
585,4	-0,019
585,9	-0,019
586,3	-0,019
586,8	-0,018
587,2	-0,019
587,6	-0,018
588,1	-0,019
588,5	-0,018
589	-0,018
589,4	-0,018
589,9	-0,018
590,3	-0,018
590,8	-0,018
591,2	-0,019
591,7	-0,019
592,1	-0,019
592,5	-0,019
593	-0,019
593,4	-0,019
593,9	-0,019
594,3	-0,019
594,8	-0,019
595,2	-0,019
595,7	-0,019
596,1	-0,019
596,6	-0,019
597	-0,019
597,4	-0,02
597,9	-0,02
598,3	-0,02
598,8	-0,02
599,2	-0,019
599,7	-0,019
600,1	-0,019
600,6	-0,019
601	-0,018
601,4	-0,018
601,9	-0,019
602,3	-0,019
602,8	-0,019
603,2	-0,019
603,7	-0,019
604,1	-0,019
604,6	-0,019
605	-0,019
605,4	-0,02
605,9	-0,02
606,3	-0,02
606,8	-0,02
607,2	-0,02
607,7	-0,02
608,1	-0,02
608,6	-0,02
609	-0,02
609,4	-0,02
609,9	-0,02
610,3	-0,02
610,8	-0,02
611,2	-0,021
611,7	-0,021
612,1	-0,021
612,6	-0,021
613	-0,021
613,4	-0,021
613,9	-0,021
614,3	-0,02
614,8	-0,02
615,2	-0,02
615,7	-0,02
616,1	-0,019
616,6	-0,019
617	-0,019
617,4	-0,019
617,9	-0,019
618,3	-0,02
618,8	-0,02
619,2	-0,02
619,7	-0,02
620,1	-0,021
620,5	-0,021
621	-0,021
621,4	-0,02
621,9	-0,02
622,3	-0,02
622,8	-0,02
623,2	-0,02
623,6	-0,02
624,1	-0,02
624,5	-0,02
625	-0,02
625,4	-0,02
625,9	-0,021
626,3	-0,02
626,8	-0,02
627,2	-0,02
627,6	-0,02
628,1	-0,02
628,5	-0,02
629	-0,019
629,4	-0,019
629,9	-0,02
630,3	-0,02
630,7	-0,02
631,2	-0,02
631,6	-0,02
632,1	-0,02
632,5	-0,02
633	-0,02
633,4	-0,02
633,8	-0,02
634,3	-0,02
634,7	-0,02
635,2	-0,02
635,6	-0,02
636,1	-0,02
636,5	-0,02
636,9	-0,02
637,4	-0,02
637,8	-0,02
638,3	-0,02
638,7	-0,02
639,2	-0,02
639,6	-0,02
640	-0,02
640,5	-0,02
640,9	-0,02
641,4	-0,02
641,8	-0,021
642,2	-0,021
642,7	-0,022
643,1	-0,021
643,6	-0,021
644	-0,021
644,5	-0,021
644,9	-0,02
645,3	-0,02
645,8	-0,02
646,2	-0,02
646,7	-0,02
647,1	-0,02
647,6	-0,02
648	-0,021
648,4	-0,021
648,9	-0,021
649,3	-0,022
649,8	-0,021
650,2	-0,021
650,6	-0,021
651,1	-0,021
651,5	-0,021
652	-0,021
652,4	-0,021
652,9	-0,02
653,3	-0,02
653,7	-0,019
654,2	-0,012
654,6	-0,009
655,1	-0,006
655,5	-0,006
655,9	-0,005
656,4	-0,005
656,8	-0,003
657,3	-0,005
657,7	-0,008
658,2	-0,012
658,6	-0,016
659	-0,017
659,5	-0,018
659,9	-0,019
660,4	-0,019
660,8	-0,02
661,2	-0,02
661,7	-0,02
662,1	-0,02
662,6	-0,021
663	-0,02
663,4	-0,02
663,9	-0,02
664,3	-0,02
664,8	-0,02
665,2	-0,02
665,6	-0,02
666,1	-0,02
666,5	-0,02
667	-0,02
667,4	-0,02
667,9	-0,02
668,3	-0,02
668,7	-0,021
669,2	-0,02
669,6	-0,02
670,1	-0,02
670,5	-0,021
670,9	-0,021
671,4	-0,021
671,8	-0,021
672,3	-0,021
672,7	-0,021
673,1	-0,021
673,6	-0,02
674	-0,02
674,5	-0,02
674,9	-0,02
675,3	-0,02
675,8	-0,02
676,2	-0,02
676,7	-0,02
677,1	-0,021
677,5	-0,021
678	-0,021
678,4	-0,021
678,9	-0,021
679,3	-0,021
679,7	-0,02
680,2	-0,02
680,6	-0,02
681,1	-0,02
681,5	-0,02
681,9	-0,02
682,4	-0,021
682,8	-0,021
683,3	-0,021
683,7	-0,022
684,1	-0,022
684,6	-0,022
685	-0,021
685,5	-0,022
685,9	-0,021
686,3	-0,021
686,8	-0,021
687,2	-0,021
687,7	-0,021
688,1	-0,021
688,5	-0,021
689	-0,02
689,4	-0,02
689,9	-0,02
690,3	-0,02
690,7	-0,02
691,2	-0,02
691,6	-0,02
692	-0,021
692,5	-0,021
692,9	-0,021
693,4	-0,021
693,8	-0,021
694,2	-0,021
694,7	-0,021
695,1	-0,021
695,6	-0,021
696	-0,021
696,4	-0,021
696,9	-0,021
697,3	-0,021
697,8	-0,021
698,2	-0,021
698,6	-0,021
699,1	-0,021
699,5	-0,021
699,9	-0,021
700,4	-0,02
700,8	-0,021
701,3	-0,02
701,7	-0,02
702,1	-0,02
702,6	-0,02
703	-0,021
703,5	-0,021
703,9	-0,021
704,3	-0,021
704,8	-0,021
705,2	-0,021
705,6	-0,021
706,1	-0,021
706,5	-0,021
707	-0,021
707,4	-0,021
707,8	-0,021
708,3	-0,022
708,7	-0,022
709,2	-0,022
709,6	-0,022
710	-0,022
710,5	-0,022
710,9	-0,022
711,3	-0,022
711,8	-0,022
712,2	-0,022
712,7	-0,022
713,1	-0,022
713,5	-0,022
714	-0,022
714,4	-0,021
714,8	-0,021
715,3	-0,021
715,7	-0,021
716,2	-0,021
716,6	-0,021
717	-0,021
717,5	-0,021
717,9	-0,021
718,3	-0,021
718,8	-0,021
719,2	-0,021
719,7	-0,021
720,1	-0,021
720,5	-0,021
721	-0,021
721,4	-0,021
721,8	-0,021
722,3	-0,021
722,7	-0,022
723,2	-0,021
723,6	-0,022
724	-0,022
724,5	-0,021
724,9	-0,021
725,3	-0,021
725,8	-0,02
726,2	-0,02
726,7	-0,021
727,1	-0,02
727,5	-0,021
728	-0,021
728,4	-0,021
728,8	-0,022
729,3	-0,021
729,7	-0,021
730,1	-0,021
730,6	-0,021
731	-0,022
731,5	-0,022
731,9	-0,022
732,3	-0,022
732,8	-0,022
733,2	-0,022
733,6	-0,022
734,1	-0,021
734,5	-0,021
734,9	-0,021
735,4	-0,021
735,8	-0,021
736,3	-0,021
736,7	-0,021
737,1	-0,02
737,6	-0,02
738	-0,02
738,4	-0,021
738,9	-0,02
739,3	-0,02
739,7	-0,02
740,2	-0,02
740,6	-0,02
741,1	-0,02
741,5	-0,02
741,9	-0,02
742,4	-0,02
742,8	-0,021
743,2	-0,021
743,7	-0,021
744,1	-0,021
744,5	-0,022
745	-0,022
745,4	-0,022
745,8	-0,021
746,3	-0,021
746,7	-0,021
747,2	-0,02
747,6	-0,02
748	-0,02
748,5	-0,021
748,9	-0,021
749,3	-0,021
749,8	-0,021
750,2	-0,021
750,6	-0,021
751,1	-0,021
751,5	-0,021
751,9	-0,021
752,4	-0,021
752,8	-0,021
753,3	-0,021
753,7	-0,021
754,1	-0,021
754,6	-0,021
755	-0,021
755,4	-0,022
755,9	-0,021
756,3	-0,022
756,7	-0,022
757,2	-0,022
757,6	-0,022
758	-0,022
758,5	-0,021
758,9	-0,021
759,3	-0,021
759,8	-0,021
760,2	-0,021
760,6	-0,021
761,1	-0,021
761,5	-0,021
761,9	-0,021
762,4	-0,021
762,8	-0,022
763,3	-0,022
763,7	-0,022
764,1	-0,022
764,6	-0,021
765	-0,021
765,4	-0,021
765,9	-0,02
766,3	-0,02
766,7	-0,02
767,2	-0,02
767,6	-0,02
768	-0,02
768,5	-0,02
768,9	-0,021
769,3	-0,021
769,8	-0,02
770,2	-0,02
770,6	-0,02
771,1	-0,02
771,5	-0,02
771,9	-0,02
772,4	-0,02
772,8	-0,02
773,2	-0,02
773,7	-0,02
774,1	-0,021
774,5	-0,02
775	-0,021
775,4	-0,021
775,8	-0,021
776,3	-0,021
776,7	-0,021
777,1	-0,021
777,6	-0,021
778	-0,021
778,4	-0,021
778,9	-0,021
779,3	-0,021
779,7	-0,021
780,2	-0,021
780,6	-0,021
781	-0,022
781,5	-0,022
781,9	-0,022
782,3	-0,022
782,8	-0,021
783,2	-0,021
783,6	-0,021
784,1	-0,021
784,5	-0,022
784,9	-0,022
785,4	-0,022
785,8	-0,022
786,2	-0,022
786,7	-0,022
787,1	-0,022
787,5	-0,021
788	-0,021
788,4	-0,021
788,8	-0,021
789,3	-0,022
789,7	-0,021
790,1	-0,021
790,6	-0,022
791	-0,021
791,4	-0,022
791,9	-0,022
792,3	-0,022
792,7	-0,022
793,2	-0,022
793,6	-0,021
794	-0,021
794,5	-0,021
794,9	-0,021
795,3	-0,02
795,8	-0,02
796,2	-0,021
796,6	-0,021
797,1	-0,021
797,5	-0,021
797,9	-0,021
798,4	-0,021
798,8	-0,021
799,2	-0,021
799,7	-0,021
800,1	-0,021
800,5	-0,021
801	-0,021
801,4	-0,021
801,8	-0,021
802,2	-0,021
802,7	-0,021
803,1	-0,02
803,5	-0,02
804	-0,02
804,4	-0,02
804,8	-0,02
805,3	-0,02
805,7	-0,021
806,1	-0,021
806,6	-0,021
807	-0,021
807,4	-0,021
807,9	-0,021
808,3	-0,021
808,7	-0,021
809,2	-0,021
809,6	-0,022
810	-0,022
810,4	-0,022
810,9	-0,021
811,3	-0,021
811,7	-0,021
812,2	-0,02
812,6	-0,02
813	-0,02
813,5	-0,02
813,9	-0,02
814,3	-0,02
814,8	-0,02
815,2	-0,02
815,6	-0,02
816,1	-0,02
816,5	-0,02
816,9	-0,021
817,3	-0,021
817,8	-0,021
818,2	-0,021
818,6	-0,022
819,1	-0,022
819,5	-0,022
819,9	-0,021
820,4	-0,022
820,8	-0,022
821,2	-0,021
821,7	-0,021
822,1	-0,021
822,5	-0,021
822,9	-0,021
823,4	-0,021
823,8	-0,021
824,2	-0,021
824,7	-0,021
825,1	-0,022
825,5	-0,022
826	-0,022
826,4	-0,021
826,8	-0,022
827,3	-0,021
827,7	-0,021
828,1	-0,021
828,5	-0,021
829	-0,021
829,4	-0,021
829,8	-0,021
830,3	-0,021
830,7	-0,021
831,1	-0,021
831,6	-0,021
832	-0,021
832,4	-0,021
832,8	-0,021
833,3	-0,021
833,7	-0,021
834,1	-0,021
834,6	-0,021
835	-0,021
835,4	-0,021
835,8	-0,021
836,3	-0,021
836,7	-0,021
837,1	-0,021
837,6	-0,021
838	-0,021
838,4	-0,02
838,9	-0,02
839,3	-0,02
839,7	-0,02
840,1	-0,02
840,6	-0,021
841	-0,021
841,4	-0,021
841,9	-0,022
842,3	-0,022
842,7	-0,022
843,1	-0,022
843,6	-0,022
844	-0,022
844,4	-0,022
844,9	-0,022
845,3	-0,021
845,7	-0,021
846,2	-0,021
846,6	-0,021
847	-0,021
847,4	-0,021
847,9	-0,021
848,3	-0,021
848,7	-0,021
849,2	-0,022
849,6	-0,022
850	-0,022
850,4	-0,022
850,9	-0,021
851,3	-0,022
851,7	-0,021
852,2	-0,021
852,6	-0,021
853	-0,021
853,4	-0,021
853,9	-0,021
854,3	-0,02
854,7	-0,021
855,2	-0,02
855,6	-0,021
856	-0,021
856,4	-0,021
856,9	-0,021
857,3	-0,021
857,7	-0,021
858,2	-0,021
858,6	-0,021
859	-0,021
859,4	-0,021
859,9	-0,021
860,3	-0,022
860,7	-0,022
861,1	-0,021
861,6	-0,021
862	-0,022
862,4	-0,022
862,9	-0,022
863,3	-0,021
863,7	-0,022
864,1	-0,022
864,6	-0,022
865	-0,022
865,4	-0,022
865,9	-0,022
866,3	-0,021
866,7	-0,022
867,1	-0,021
867,6	-0,021
868	-0,021
868,4	-0,021
868,8	-0,021
869,3	-0,021
869,7	-0,021
870,1	-0,021
870,6	-0,02
871	-0,02
871,4	-0,02
871,8	-0,02
872,3	-0,02
872,7	-0,021
873,1	-0,021
873,5	-0,022
874	-0,022
874,4	-0,022
874,8	-0,022
875,3	-0,022
875,7	-0,022
876,1	-0,022
876,5	-0,022
877	-0,022
877,4	-0,022
877,8	-0,021
878,2	-0,021
878,7	-0,021
879,1	-0,021
879,5	-0,021
879,9	-0,021
880,4	-0,021
880,8	-0,021
881,2	-0,021
881,7	-0,022
882,1	-0,021
882,5	-0,022
882,9	-0,021
883,4	-0,022
883,8	-0,022
884,2	-0,022
884,6	-0,021
885,1	-0,021
885,5	-0,021
885,9	-0,021
886,3	-0,021
886,8	-0,021
887,2	-0,021
887,6	-0,022
888	-0,022
888,5	-0,021
888,9	-0,021
889,3	-0,021
889,8	-0,021
890,2	-0,02
890,6	-0,021
891	-0,021
891,5	-0,021
891,9	-0,021
892,3	-0,021
892,7	-0,021
893,2	-0,022
893,6	-0,021
894	-0,021
894,4	-0,022
894,9	-0,022
895,3	-0,022
895,7	-0,022
896,1	-0,022
896,6	-0,022
897	-0,022
897,4	-0,022
897,8	-0,022
898,3	-0,022
898,7	-0,021
899,1	-0,021
899,5	-0,021
900	-0,021
900,4	-0,021
900,8	-0,021
901,2	-0,021
901,7	-0,021
902,1	-0,021
902,5	-0,021
902,9	-0,021
903,4	-0,021
903,8	-0,02
904,2	-0,02
904,6	-0,02
905,1	-0,02
905,5	-0,02
905,9	-0,02
906,3	-0,021
906,8	-0,021
907,2	-0,021
907,6	-0,021
908	-0,021
908,5	-0,021
908,9	-0,021
909,3	-0,021
909,7	-0,021
910,2	-0,021
910,6	-0,021
911	-0,021
911,4	-0,021
911,9	-0,02
912,3	-0,02
912,7	-0,02
913,1	-0,02
913,6	-0,021
914	-0,021
914,4	-0,021
914,8	-0,021
915,3	-0,022
915,7	-0,022
916,1	-0,022
916,5	-0,022
916,9	-0,022
917,4	-0,022
917,8	-0,022
918,2	-0,022
918,6	-0,021
919,1	-0,021
919,5	-0,021
919,9	-0,021
920,3	-0,021
920,8	-0,021
921,2	-0,022
921,6	-0,022
922	-0,022
922,5	-0,022
922,9	-0,022
923,3	-0,022
923,7	-0,022
924,2	-0,022
924,6	-0,022
925	-0,022
925,4	-0,022
925,8	-0,021
926,3	-0,021
926,7	-0,021
927,1	-0,021
927,5	-0,021
928	-0,02
928,4	-0,02
928,8	-0,02
929,2	-0,02
929,7	-0,02
930,1	-0,02
930,5	-0,02
930,9	-0,02
931,3	-0,02
931,8	-0,02
932,2	-0,021
932,6	-0,021
933	-0,021
933,5	-0,021
933,9	-0,021
934,3	-0,021
934,7	-0,021
935,2	-0,021
935,6	-0,02
936	-0,02
936,4	-0,02
936,8	-0,02
937,3	-0,02
937,7	-0,02
938,1	-0,02
938,5	-0,021
939	-0,021
939,4	-0,021
939,8	-0,021
940,2	-0,021
940,6	-0,021
941,1	-0,022
941,5	-0,022
941,9	-0,022
942,3	-0,022
942,8	-0,022
943,2	-0,022
943,6	-0,023
944	-0,022
944,4	-0,022
944,9	-0,022
945,3	-0,022
945,7	-0,022
946,1	-0,022
946,6	-0,022
947	-0,022
947,4	-0,021
947,8	-0,022
948,2	-0,022
948,7	-0,022
949,1	-0,023
949,5	-0,022
949,9	-0,023
950,3	-0,023
950,8	-0,022
951,2	-0,022
951,6	-0,022
952	-0,022
952,5	-0,022
952,9	-0,022
953,3	-0,022
953,7	-0,022
954,1	-0,022
954,6	-0,021
955	-0,021
955,4	-0,021
955,8	-0,021
956,2	-0,022
956,7	-0,022
957,1	-0,022
957,5	-0,022
957,9	-0,023
958,3	-0,022
958,8	-0,022
959,2	-0,021
959,6	-0,021
960	-0,021
960,5	-0,021
960,9	-0,02
961,3	-0,021
961,7	-0,021
962,1	-0,021
962,6	-0,021
963	-0,021
963,4	-0,021
963,8	-0,021
964,2	-0,021
964,7	-0,021
965,1	-0,02
965,5	-0,02
965,9	-0,02
966,3	-0,02
966,8	-0,02
967,2	-0,02
967,6	-0,021
968	-0,021
968,4	-0,021
968,9	-0,022
969,3	-0,022
969,7	-0,022
970,1	-0,021
970,5	-0,021
971	-0,02
971,4	-0,021
971,8	-0,021
972,2	-0,021
972,6	-0,021
973,1	-0,022
973,5	-0,022
973,9	-0,022
974,3	-0,022
974,7	-0,022
975,2	-0,022
975,6	-0,022
976	-0,021
976,4	-0,021
976,8	-0,022
977,3	-0,022
977,7	-0,022
978,1	-0,022
978,5	-0,022
978,9	-0,022
979,4	-0,023
979,8	-0,022
980,2	-0,022
980,6	-0,022
981	-0,022
981,5	-0,022
981,9	-0,02
982,3	-0,021
982,7	-0,021
983,1	-0,021
983,6	-0,021
984	-0,021
984,4	-0,021
984,8	-0,022
985,2	-0,022
985,6	-0,021
986,1	-0,021
986,5	-0,021
986,9	-0,02
987,3	-0,021
987,7	-0,021
988,2	-0,021
988,6	-0,021
989	-0,021
989,4	-0,021
989,8	-0,022
990,3	-0,022
990,7	-0,021
991,1	-0,021
991,5	-0,021
991,9	-0,021
992,3	-0,021
992,8	-0,021
993,2	-0,021
993,6	-0,021
994	-0,021
994,4	-0,022
994,9	-0,022
995,3	-0,022
995,7	-0,022
996,1	-0,021
996,5	-0,021
996,9	-0,021
997,4	-0,022
997,8	-0,021
998,2	-0,022
998,6	-0,021
999	-0,022
999,5	-0,022
999,9	-0,022
1000,3	-0,021
1000,7	-0,022
1001,1	-0,022
1001,5	-0,022
1002	-0,022
1002,4	-0,022
1002,8	-0,023
1003,2	-0,023
1003,6	-0,023
1004	-0,023
1004,5	-0,022
1004,9	-0,022
1005,3	-0,023
1005,7	-0,022
1006,1	-0,022
1006,6	-0,022
1007	-0,022
1007,4	-0,022
1007,8	-0,022
1008,2	-0,021
1008,6	-0,021
1009,1	-0,02
1009,5	-0,02
1009,9	-0,02
1010,3	-0,02
1010,7	-0,02
1011,1	-0,02
1011,6	-0,019
1012	-0,02
1012,4	-0,021
1012,8	-0,022
1013,2	-0,022
1013,6	-0,022
1014,1	-0,022
1014,5	-0,023
1014,9	-0,022
1015,3	-0,022
1015,7	-0,022
1016,1	-0,023
1016,6	-0,023
1017	-0,022
1017,4	-0,022
1017,8	-0,021
1018,2	-0,021
1018,6	-0,021
1019,1	-0,02
1019,5	-0,02
1019,9	-0,02
1020,3	-0,02
1020,7	-0,02
1021,1	-0,021
1021,6	-0,02
1022	-0,02
1022,4	-0,02
1022,8	-0,02
1023,2	-0,02
1023,6	-0,021
1024,1	-0,02
1024,5	-0,021
1024,9	-0,021
1025,3	-0,021
1025,7	-0,021
1026,1	-0,021
1026,6	-0,021
1027	-0,022
1027,4	-0,022
1027,8	-0,022
1028,2	-0,022
1028,6	-0,023
1029	-0,023
1029,5	-0,023
1029,9	-0,023
1030,3	-0,022
1030,7	-0,022
1031,1	-0,023
1031,5	-0,023
1032	-0,022
1032,4	-0,022
1032,8	-0,022
1033,2	-0,022
1033,6	-0,023
1034	-0,023
1034,4	-0,023
1034,9	-0,023
1035,3	-0,023
1035,7	-0,023
1036,1	-0,023
1036,5	-0,023
1036,9	-0,023
1037,4	-0,023
1037,8	-0,023
1038,2	-0,024
1038,6	-0,023
1039	-0,023
1039,4	-0,022
1039,8	-0,022
1040,3	-0,022
1040,7	-0,022
1041,1	-0,021
1041,5	-0,021
1041,9	-0,02
1042,3	-0,021
1042,7	-0,021
1043,2	-0,021
1043,6	-0,021
1044	-0,02
1044,4	-0,021
1044,8	-0,021
1045,2	-0,021
1045,6	-0,021
1046,1	-0,02
1046,5	-0,021
1046,9	-0,021
1047,3	-0,022
1047,7	-0,021
1048,1	-0,021
1048,5	-0,021
1049	-0,021
1049,4	-0,021
1049,8	-0,021
1050,2	-0,02
1050,6	-0,02
1051	-0,02
1051,4	-0,02
1051,9	-0,021
1052,3	-0,02
1052,7	-0,02
1053,1	-0,019
1053,5	-0,019
1053,9	-0,019
1054,3	-0,019
1054,8	-0,018
1055,2	-0,018
1055,6	-0,018
1056	-0,019
1056,4	-0,019
1056,8	-0,02
1057,2	-0,02
1057,6	-0,02
1058,1	-0,021
1058,5	-0,021
1058,9	-0,021
1059,3	-0,021
1059,7	-0,021
1060,1	-0,022
1060,5	-0,022
1061	-0,02
1061,4	-0,02
1061,8	-0,021
1062,2	-0,022
1062,6	-0,022
1063	-0,021
1063,4	-0,021
1063,8	-0,023
1064,3	-0,023
1064,7	-0,022
1065,1	-0,022
1065,5	-0,022
1065,9	-0,021
1066,3	-0,021
1066,7	-0,021
1067,1	-0,021
1067,6	-0,021
1068	-0,02
1068,4	-0,02
1068,8	-0,02
1069,2	-0,021
1069,6	-0,02
1070	-0,021
1070,4	-0,022
1070,9	-0,022
1071,3	-0,022
1071,7	-0,023
1072,1	-0,023
1072,5	-0,023
1072,9	-0,023
1073,3	-0,023
1073,7	-0,023
1074,2	-0,022
1074,6	-0,022
1075	-0,021
1075,4	-0,02
1075,8	-0,021
1076,2	-0,021
1076,6	-0,02
1077	-0,02
1077,5	-0,021
1077,9	-0,022
1078,3	-0,023
1078,7	-0,022
1079,1	-0,021
1079,5	-0,021
1079,9	-0,023
1080,3	-0,023
1080,7	-0,024
1081,2	-0,023
1081,6	-0,025
1082	-0,026
1082,4	-0,026
1082,8	-0,024
1083,2	-0,024
1083,6	-0,024
1084	-0,026
1084,5	-0,024
1084,9	-0,025
1085,3	-0,024
1085,7	-0,026
1086,1	-0,024
1086,5	-0,024
1086,9	-0,023
1087,3	-0,023
1087,7	-0,022
1088,2	-0,022
1088,6	-0,023
1089	-0,024
1089,4	-0,025
1089,8	-0,026
1090,2	-0,024
1090,6	-0,021
1091	-0,02
1091,4	-0,021
1091,9	-0,023
1092,3	-0,021
1092,7	-0,016
1093,1	-0,019
1093,5	-0,025
1093,9	-0,024
1094,3	-0,028
1094,7	-0,022
1095,1	-0,023
1095,5	-0,026
1096	-0,026
1096,4	-0,026
1096,8	-0,028
1097,2	-0,022
1097,6	-0,028
1098	-0,032
1098,4	-0,032
1098,8	-0,029
1099,2	-0,034
1099,6	-0,037
1100,1	-0,04
1100,5	-0,042
1100,9	-0,033
1101,3	-0,04
1101,7	-0,039
1102,1	-0,043
1102,5	-0,033
1102,9	-0,041
1103,3	-0,037
1103,7	-0,041
1104,2	-0,041
1104,6	-0,044
1105	-0,042
1105,4	-0,044
1105,8	-0,035
1106,2	-0,03
1106,6	-0,034
1107	-0,028
1107,4	-0,027
1107,8	0,026
1108,3	-0,35
