Data from Absorbance_174.txt Node
Date: Fri Nov 13 20:16:26 MSK 2020
User: vat
Spectrometer: MAYP114033
Trigger mode: 0
Integration Time (sec): 8,000000E-3
Scans to average: 10
Electric dark correction enabled: true
Nonlinearity correction enabled: false
Boxcar width: 3
XAxis mode: Wavelengths
Number of Pixels in Spectrum: 2068
>>>>>Begin Spectral Data<<<<<
199,4	-0
199,9	0,317
200,4	0,199
200,8	0,123
201,3	0,066
201,8	0,067
202,2	0,059
202,7	0,07
203,2	0,058
203,6	0,055
204,1	0,055
204,6	0,067
205	0,056
205,5	0,057
206	0,053
206,4	0,058
206,9	0,063
207,4	0,072
207,8	0,064
208,3	0,078
208,8	0,075
209,2	0,083
209,7	0,069
210,2	0,06
210,6	0,057
211,1	0,059
211,5	0,063
212	0,06
212,5	0,063
212,9	0,088
213,4	0,092
213,9	0,076
214,3	0,078
214,8	0,074
215,3	0,083
215,7	0,072
216,2	0,054
216,7	0,045
217,1	0,067
217,6	0,058
218,1	0,05
218,5	0,044
219	0,042
219,5	0,061
219,9	0,076
220,4	0,078
220,9	0,089
221,3	0,088
221,8	0,091
222,3	0,105
222,7	0,109
223,2	0,108
223,6	0,101
224,1	0,101
224,6	0,116
225	0,124
225,5	0,112
226	0,103
226,4	0,106
226,9	0,1
227,4	0,111
227,8	0,101
228,3	0,083
228,8	0,098
229,2	0,102
229,7	0,1
230,2	0,107
230,6	0,086
231,1	0,082
231,5	0,092
232	0,085
232,5	0,084
232,9	0,083
233,4	0,083
233,9	0,088
234,3	0,097
234,8	0,106
235,3	0,106
235,7	0,1
236,2	0,104
236,7	0,118
237,1	0,135
237,6	0,116
238,1	0,112
238,5	0,105
239	0,111
239,4	0,113
239,9	0,112
240,4	0,115
240,8	0,134
241,3	0,134
241,8	0,152
242,2	0,158
242,7	0,158
243,2	0,143
243,6	0,146
244,1	0,149
244,6	0,156
245	0,15
245,5	0,153
245,9	0,158
246,4	0,177
246,9	0,17
247,3	0,172
247,8	0,173
248,3	0,183
248,7	0,194
249,2	0,207
249,7	0,21
250,1	0,217
250,6	0,218
251	0,219
251,5	0,222
252	0,22
252,4	0,224
252,9	0,226
253,4	0,232
253,8	0,238
254,3	0,243
254,8	0,245
255,2	0,248
255,7	0,251
256,1	0,253
256,6	0,254
257,1	0,258
257,5	0,261
258	0,266
258,5	0,272
258,9	0,276
259,4	0,282
259,9	0,288
260,3	0,294
260,8	0,3
261,2	0,305
261,7	0,312
262,2	0,318
262,6	0,324
263,1	0,331
263,6	0,336
264	0,343
264,5	0,349
264,9	0,355
265,4	0,362
265,9	0,367
266,3	0,373
266,8	0,379
267,3	0,384
267,7	0,39
268,2	0,396
268,7	0,401
269,1	0,409
269,6	0,417
270	0,424
270,5	0,43
271	0,436
271,4	0,442
271,9	0,449
272,4	0,454
272,8	0,46
273,3	0,465
273,7	0,471
274,2	0,476
274,7	0,481
275,1	0,485
275,6	0,49
276,1	0,495
276,5	0,499
277	0,503
277,4	0,507
277,9	0,511
278,4	0,514
278,8	0,516
279,3	0,518
279,8	0,519
280,2	0,522
280,7	0,523
281,1	0,523
281,6	0,523
282,1	0,523
282,5	0,524
283	0,523
283,4	0,522
283,9	0,52
284,4	0,518
284,8	0,517
285,3	0,515
285,8	0,512
286,2	0,509
286,7	0,505
287,1	0,502
287,6	0,497
288,1	0,491
288,5	0,486
289	0,48
289,5	0,475
289,9	0,467
290,4	0,461
290,8	0,454
291,3	0,447
291,8	0,439
292,2	0,431
292,7	0,422
293,1	0,414
293,6	0,405
294,1	0,396
294,5	0,387
295	0,378
295,5	0,369
295,9	0,36
296,4	0,351
296,8	0,341
297,3	0,331
297,8	0,321
298,2	0,311
298,7	0,301
299,1	0,292
299,6	0,282
300,1	0,273
300,5	0,264
301	0,255
301,5	0,247
301,9	0,238
302,4	0,23
302,8	0,222
303,3	0,213
303,8	0,206
304,2	0,198
304,7	0,191
305,1	0,184
305,6	0,177
306,1	0,171
306,5	0,165
307	0,158
307,4	0,152
307,9	0,147
308,4	0,142
308,8	0,136
309,3	0,132
309,8	0,127
310,2	0,123
310,7	0,119
311,1	0,115
311,6	0,111
312,1	0,108
312,5	0,104
313	0,101
313,4	0,098
313,9	0,095
314,4	0,092
314,8	0,089
315,3	0,086
315,7	0,084
316,2	0,082
316,7	0,08
317,1	0,078
317,6	0,077
318	0,075
318,5	0,074
319	0,072
319,4	0,07
319,9	0,069
320,3	0,068
320,8	0,066
321,3	0,065
321,7	0,064
322,2	0,063
322,6	0,063
323,1	0,062
323,6	0,061
324	0,061
324,5	0,06
324,9	0,06
325,4	0,059
325,9	0,058
326,3	0,058
326,8	0,057
327,2	0,056
327,7	0,055
328,2	0,055
328,6	0,054
329,1	0,054
329,5	0,053
330	0,053
330,5	0,052
330,9	0,052
331,4	0,052
331,8	0,052
332,3	0,052
332,8	0,051
333,2	0,05
333,7	0,05
334,1	0,049
334,6	0,049
335,1	0,049
335,5	0,049
336	0,049
336,4	0,049
336,9	0,049
337,4	0,049
337,8	0,048
338,3	0,048
338,7	0,048
339,2	0,048
339,7	0,047
340,1	0,048
340,6	0,047
341	0,047
341,5	0,047
342	0,047
342,4	0,046
342,9	0,046
343,3	0,046
343,8	0,046
344,2	0,046
344,7	0,046
345,2	0,045
345,6	0,046
346,1	0,045
346,5	0,045
347	0,046
347,5	0,045
347,9	0,045
348,4	0,045
348,8	0,045
349,3	0,044
349,8	0,044
350,2	0,044
350,7	0,044
351,1	0,043
351,6	0,043
352	0,042
352,5	0,043
353	0,043
353,4	0,042
353,9	0,042
354,3	0,042
354,8	0,041
355,3	0,042
355,7	0,041
356,2	0,041
356,6	0,04
357,1	0,04
357,5	0,041
358	0,041
358,5	0,04
358,9	0,04
359,4	0,04
359,8	0,041
360,3	0,04
360,8	0,04
361,2	0,041
361,7	0,04
362,1	0,04
362,6	0,04
363	0,039
363,5	0,039
364	0,038
364,4	0,038
364,9	0,038
365,3	0,039
365,8	0,039
366,3	0,039
366,7	0,039
367,2	0,039
367,6	0,038
368,1	0,038
368,5	0,037
369	0,037
369,5	0,036
369,9	0,037
370,4	0,037
370,8	0,036
371,3	0,036
371,7	0,037
372,2	0,037
372,7	0,036
373,1	0,036
373,6	0,035
374	0,035
374,5	0,035
374,9	0,035
375,4	0,035
375,9	0,035
376,3	0,035
376,8	0,035
377,2	0,034
377,7	0,034
378,2	0,034
378,6	0,034
379,1	0,033
379,5	0,033
380	0,033
380,4	0,033
380,9	0,033
381,4	0,032
381,8	0,032
382,3	0,032
382,7	0,032
383,2	0,032
383,6	0,032
384,1	0,032
384,6	0,032
385	0,032
385,5	0,032
385,9	0,032
386,4	0,031
386,8	0,032
387,3	0,032
387,7	0,032
388,2	0,032
388,7	0,032
389,1	0,032
389,6	0,032
390	0,031
390,5	0,031
390,9	0,031
391,4	0,03
391,9	0,03
392,3	0,031
392,8	0,03
393,2	0,03
393,7	0,03
394,1	0,03
394,6	0,031
395,1	0,03
395,5	0,03
396	0,03
396,4	0,029
396,9	0,029
397,3	0,029
397,8	0,028
398,2	0,028
398,7	0,028
399,2	0,028
399,6	0,028
400,1	0,028
400,5	0,028
401	0,028
401,4	0,027
401,9	0,027
402,4	0,027
402,8	0,027
403,3	0,027
403,7	0,027
404,2	0,027
404,6	0,027
405,1	0,027
405,5	0,027
406	0,026
406,5	0,026
406,9	0,026
407,4	0,026
407,8	0,025
408,3	0,025
408,7	0,025
409,2	0,025
409,6	0,025
410,1	0,024
410,6	0,024
411	0,024
411,5	0,024
411,9	0,024
412,4	0,024
412,8	0,024
413,3	0,024
413,7	0,023
414,2	0,024
414,7	0,024
415,1	0,025
415,6	0,025
416	0,025
416,5	0,025
416,9	0,026
417,4	0,026
417,8	0,025
418,3	0,025
418,8	0,025
419,2	0,025
419,7	0,024
420,1	0,024
420,6	0,024
421	0,024
421,5	0,024
421,9	0,024
422,4	0,024
422,8	0,024
423,3	0,023
423,8	0,023
424,2	0,023
424,7	0,023
425,1	0,023
425,6	0,022
426	0,022
426,5	0,022
426,9	0,022
427,4	0,022
427,9	0,022
428,3	0,021
428,8	0,021
429,2	0,021
429,7	0,021
430,1	0,021
430,6	0,021
431	0,021
431,5	0,021
431,9	0,022
432,4	0,022
432,8	0,021
433,3	0,022
433,8	0,022
434,2	0,022
434,7	0,021
435,1	0,021
435,6	0,021
436	0,021
436,5	0,021
436,9	0,021
437,4	0,02
437,8	0,02
438,3	0,02
438,8	0,02
439,2	0,02
439,7	0,02
440,1	0,021
440,6	0,021
441	0,021
441,5	0,021
441,9	0,021
442,4	0,021
442,8	0,02
443,3	0,02
443,7	0,02
444,2	0,02
444,7	0,02
445,1	0,02
445,6	0,02
446	0,02
446,5	0,02
446,9	0,02
447,4	0,02
447,8	0,019
448,3	0,019
448,7	0,019
449,2	0,019
449,6	0,019
450,1	0,019
450,6	0,019
451	0,019
451,5	0,019
451,9	0,019
452,4	0,019
452,8	0,02
453,3	0,02
453,7	0,019
454,2	0,02
454,6	0,02
455,1	0,02
455,5	0,02
456	0,019
456,4	0,019
456,9	0,019
457,3	0,019
457,8	0,018
458,3	0,018
458,7	0,018
459,2	0,018
459,6	0,017
460,1	0,017
460,5	0,018
461	0,018
461,4	0,018
461,9	0,018
462,3	0,017
462,8	0,018
463,2	0,018
463,7	0,018
464,1	0,017
464,6	0,017
465	0,017
465,5	0,017
466	0,017
466,4	0,017
466,9	0,017
467,3	0,017
467,8	0,017
468,2	0,017
468,7	0,017
469,1	0,017
469,6	0,017
470	0,017
470,5	0,017
470,9	0,017
471,4	0,017
471,8	0,018
472,3	0,018
472,7	0,018
473,2	0,019
473,6	0,018
474,1	0,018
474,5	0,018
475	0,018
475,4	0,017
475,9	0,017
476,4	0,017
476,8	0,017
477,3	0,017
477,7	0,017
478,2	0,017
478,6	0,017
479,1	0,017
479,5	0,017
480	0,017
480,4	0,017
480,9	0,017
481,3	0,017
481,8	0,016
482,2	0,016
482,7	0,016
483,1	0,017
483,6	0,017
484	0,017
484,5	0,016
484,9	0,016
485,4	0,016
485,8	0,016
486,3	0,015
486,7	0,015
487,2	0,015
487,6	0,015
488,1	0,015
488,5	0,015
489	0,015
489,4	0,015
489,9	0,015
490,4	0,014
490,8	0,015
491,3	0,015
491,7	0,015
492,2	0,015
492,6	0,016
493,1	0,016
493,5	0,017
494	0,016
494,4	0,016
494,9	0,015
495,3	0,015
495,8	0,015
496,2	0,015
496,7	0,015
497,1	0,015
497,6	0,015
498	0,015
498,5	0,015
498,9	0,015
499,4	0,015
499,8	0,014
500,3	0,014
500,7	0,014
501,2	0,014
501,6	0,014
502,1	0,014
502,5	0,014
503	0,014
503,4	0,015
503,9	0,015
504,3	0,015
504,8	0,015
505,2	0,015
505,7	0,015
506,1	0,015
506,6	0,014
507	0,014
507,5	0,013
507,9	0,013
508,4	0,013
508,8	0,013
509,3	0,013
509,7	0,013
510,2	0,013
510,6	0,013
511,1	0,013
511,5	0,013
512	0,013
512,4	0,014
512,9	0,013
513,3	0,013
513,8	0,013
514,2	0,013
514,7	0,013
515,1	0,013
515,6	0,012
516	0,012
516,5	0,013
516,9	0,013
517,4	0,012
517,8	0,012
518,3	0,013
518,7	0,013
519,2	0,013
519,6	0,013
520,1	0,012
520,5	0,012
521	0,013
521,4	0,013
521,9	0,012
522,3	0,012
522,8	0,012
523,2	0,012
523,7	0,012
524,1	0,012
524,6	0,012
525	0,012
525,5	0,012
525,9	0,012
526,4	0,012
526,8	0,012
527,3	0,012
527,7	0,012
528,2	0,012
528,6	0,012
529,1	0,011
529,5	0,011
530	0,011
530,4	0,011
530,9	0,011
531,3	0,011
531,8	0,011
532,2	0,011
532,6	0,011
533,1	0,012
533,5	0,011
534	0,011
534,4	0,011
534,9	0,011
535,3	0,011
535,8	0,011
536,2	0,011
536,7	0,011
537,1	0,011
537,6	0,011
538	0,011
538,5	0,011
538,9	0,011
539,4	0,012
539,8	0,011
540,3	0,011
540,7	0,011
541,2	0,011
541,6	0,011
542,1	0,011
542,5	0,01
543	0,011
543,4	0,01
543,9	0,01
544,3	0,01
544,8	0,01
545,2	0,009
545,7	0,01
546,1	0,01
546,5	0,01
547	0,01
547,4	0,01
547,9	0,01
548,3	0,01
548,8	0,01
549,2	0,009
549,7	0,009
550,1	0,009
550,6	0,009
551	0,009
551,5	0,009
551,9	0,009
552,4	0,009
552,8	0,009
553,3	0,009
553,7	0,009
554,2	0,009
554,6	0,009
555,1	0,008
555,5	0,008
555,9	0,009
556,4	0,01
556,8	0,01
557,3	0,01
557,7	0,009
558,2	0,01
558,6	0,009
559,1	0,009
559,5	0,009
560	0,008
560,4	0,008
560,9	0,008
561,3	0,008
561,8	0,008
562,2	0,008
562,7	0,008
563,1	0,009
563,6	0,008
564	0,008
564,4	0,008
564,9	0,008
565,3	0,008
565,8	0,008
566,2	0,007
566,7	0,008
567,1	0,008
567,6	0,008
568	0,008
568,5	0,008
568,9	0,009
569,4	0,009
569,8	0,008
570,3	0,008
570,7	0,008
571,1	0,008
571,6	0,008
572	0,008
572,5	0,008
572,9	0,008
573,4	0,008
573,8	0,008
574,3	0,008
574,7	0,008
575,2	0,007
575,6	0,007
576,1	0,008
576,5	0,008
576,9	0,007
577,4	0,007
577,8	0,007
578,3	0,007
578,7	0,007
579,2	0,007
579,6	0,007
580,1	0,007
580,5	0,007
581	0,007
581,4	0,007
581,9	0,007
582,3	0,007
582,7	0,007
583,2	0,006
583,6	0,007
584,1	0,007
584,5	0,007
585	0,008
585,4	0,008
585,9	0,008
586,3	0,007
586,8	0,007
587,2	0,007
587,6	0,006
588,1	0,006
588,5	0,006
589	0,006
589,4	0,006
589,9	0,006
590,3	0,007
590,8	0,007
591,2	0,007
591,7	0,007
592,1	0,007
592,5	0,007
593	0,007
593,4	0,007
593,9	0,007
594,3	0,007
594,8	0,007
595,2	0,007
595,7	0,007
596,1	0,007
596,6	0,006
597	0,006
597,4	0,006
597,9	0,006
598,3	0,006
598,8	0,006
599,2	0,005
599,7	0,006
600,1	0,006
600,6	0,006
601	0,006
601,4	0,006
601,9	0,006
602,3	0,006
602,8	0,006
603,2	0,006
603,7	0,006
604,1	0,006
604,6	0,006
605	0,006
605,4	0,005
605,9	0,005
606,3	0,005
606,8	0,005
607,2	0,005
607,7	0,005
608,1	0,005
608,6	0,005
609	0,005
609,4	0,005
609,9	0,005
610,3	0,005
610,8	0,004
611,2	0,004
611,7	0,004
612,1	0,004
612,6	0,004
613	0,004
613,4	0,004
613,9	0,004
614,3	0,004
614,8	0,004
615,2	0,004
615,7	0,004
616,1	0,004
616,6	0,005
617	0,005
617,4	0,005
617,9	0,005
618,3	0,005
618,8	0,005
619,2	0,005
619,7	0,005
620,1	0,005
620,5	0,004
621	0,005
621,4	0,005
621,9	0,005
622,3	0,005
622,8	0,005
623,2	0,004
623,6	0,004
624,1	0,004
624,5	0,004
625	0,004
625,4	0,003
625,9	0,004
626,3	0,004
626,8	0,004
627,2	0,004
627,6	0,004
628,1	0,005
628,5	0,005
629	0,004
629,4	0,005
629,9	0,005
630,3	0,005
630,7	0,005
631,2	0,004
631,6	0,004
632,1	0,004
632,5	0,004
633	0,004
633,4	0,004
633,8	0,004
634,3	0,004
634,7	0,005
635,2	0,005
635,6	0,005
636,1	0,004
636,5	0,004
636,9	0,003
637,4	0,003
637,8	0,003
638,3	0,003
638,7	0,003
639,2	0,003
639,6	0,003
640	0,004
640,5	0,004
640,9	0,004
641,4	0,004
641,8	0,004
642,2	0,004
642,7	0,004
643,1	0,004
643,6	0,004
644	0,004
644,5	0,003
644,9	0,004
645,3	0,004
645,8	0,004
646,2	0,004
646,7	0,004
647,1	0,004
647,6	0,004
648	0,004
648,4	0,004
648,9	0,003
649,3	0,003
649,8	0,003
650,2	0,003
650,6	0,003
651,1	0,003
651,5	0,003
652	0,003
652,4	0,003
652,9	0,004
653,3	0,004
653,7	0,007
654,2	0,005
654,6	0,004
655,1	0,003
655,5	0,002
655,9	0,002
656,4	0,002
656,8	0
657,3	0
657,7	0,001
658,2	0,001
658,6	0,003
659	0,003
659,5	0,003
659,9	0,003
660,4	0,002
660,8	0,003
661,2	0,002
661,7	0,002
662,1	0,002
662,6	0,002
663	0,003
663,4	0,003
663,9	0,003
664,3	0,003
664,8	0,003
665,2	0,003
665,6	0,002
666,1	0,003
666,5	0,003
667	0,002
667,4	0,002
667,9	0,003
668,3	0,003
668,7	0,003
669,2	0,003
669,6	0,003
670,1	0,003
670,5	0,003
670,9	0,003
671,4	0,003
671,8	0,003
672,3	0,003
672,7	0,004
673,1	0,004
673,6	0,003
674	0,003
674,5	0,003
674,9	0,002
675,3	0,003
675,8	0,003
676,2	0,003
676,7	0,003
677,1	0,003
677,5	0,003
678	0,003
678,4	0,003
678,9	0,003
679,3	0,002
679,7	0,002
680,2	0,002
680,6	0,003
681,1	0,003
681,5	0,003
681,9	0,003
682,4	0,003
682,8	0,003
683,3	0,003
683,7	0,003
684,1	0,003
684,6	0,002
685	0,003
685,5	0,002
685,9	0,002
686,3	0,002
686,8	0,002
687,2	0,002
687,7	0,002
688,1	0,002
688,5	0,002
689	0,002
689,4	0,002
689,9	0,003
690,3	0,003
690,7	0,003
691,2	0,003
691,6	0,003
692	0,003
692,5	0,002
692,9	0,002
693,4	0,002
693,8	0,002
694,2	0,002
694,7	0,002
695,1	0,002
695,6	0,003
696	0,003
696,4	0,003
696,9	0,003
697,3	0,003
697,8	0,003
698,2	0,003
698,6	0,003
699,1	0,003
699,5	0,003
699,9	0,003
700,4	0,003
700,8	0,003
701,3	0,003
701,7	0,002
702,1	0,002
702,6	0,002
703	0,002
703,5	0,002
703,9	0,003
704,3	0,003
704,8	0,003
705,2	0,003
705,6	0,003
706,1	0,003
706,5	0,003
707	0,003
707,4	0,003
707,8	0,003
708,3	0,003
708,7	0,003
709,2	0,003
709,6	0,003
710	0,003
710,5	0,003
710,9	0,003
711,3	0,003
711,8	0,003
712,2	0,003
712,7	0,002
713,1	0,002
713,5	0,002
714	0,002
714,4	0,002
714,8	0,002
715,3	0,003
715,7	0,003
716,2	0,003
716,6	0,003
717	0,003
717,5	0,002
717,9	0,003
718,3	0,003
718,8	0,002
719,2	0,003
719,7	0,003
720,1	0,003
720,5	0,003
721	0,003
721,4	0,003
721,8	0,003
722,3	0,003
722,7	0,002
723,2	0,003
723,6	0,003
724	0,003
724,5	0,003
724,9	0,003
725,3	0,003
725,8	0,003
726,2	0,003
726,7	0,003
727,1	0,003
727,5	0,003
728	0,003
728,4	0,003
728,8	0,003
729,3	0,003
729,7	0,003
730,1	0,003
730,6	0,003
731	0,003
731,5	0,003
731,9	0,003
732,3	0,003
732,8	0,002
733,2	0,002
733,6	0,002
734,1	0,002
734,5	0,002
734,9	0,003
735,4	0,003
735,8	0,003
736,3	0,004
736,7	0,004
737,1	0,004
737,6	0,004
738	0,004
738,4	0,004
738,9	0,004
739,3	0,004
739,7	0,003
740,2	0,003
740,6	0,004
741,1	0,003
741,5	0,003
741,9	0,003
742,4	0,003
742,8	0,003
743,2	0,003
743,7	0,002
744,1	0,002
744,5	0,002
745	0,002
745,4	0,002
745,8	0,002
746,3	0,002
746,7	0,002
747,2	0,002
747,6	0,002
748	0,002
748,5	0,002
748,9	0,003
749,3	0,003
749,8	0,003
750,2	0,003
750,6	0,004
751,1	0,004
751,5	0,004
751,9	0,003
752,4	0,003
752,8	0,003
753,3	0,003
753,7	0,003
754,1	0,003
754,6	0,002
755	0,002
755,4	0,002
755,9	0,002
756,3	0,002
756,7	0,002
757,2	0,003
757,6	0,003
758	0,003
758,5	0,003
758,9	0,003
759,3	0,003
759,8	0,003
760,2	0,003
760,6	0,003
761,1	0,003
761,5	0,003
761,9	0,003
762,4	0,003
762,8	0,003
763,3	0,003
763,7	0,003
764,1	0,003
764,6	0,003
765	0,003
765,4	0,003
765,9	0,003
766,3	0,003
766,7	0,003
767,2	0,003
767,6	0,003
768	0,003
768,5	0,003
768,9	0,004
769,3	0,004
769,8	0,004
770,2	0,003
770,6	0,003
771,1	0,003
771,5	0,003
771,9	0,003
772,4	0,003
772,8	0,002
773,2	0,002
773,7	0,002
774,1	0,002
774,5	0,002
775	0,002
775,4	0,002
775,8	0,002
776,3	0,002
776,7	0,002
777,1	0,002
777,6	0,002
778	0,002
778,4	0,003
778,9	0,002
779,3	0,003
779,7	0,003
780,2	0,003
780,6	0,003
781	0,003
781,5	0,003
781,9	0,003
782,3	0,003
782,8	0,002
783,2	0,002
783,6	0,002
784,1	0,001
784,5	0,001
784,9	0,001
785,4	0,001
785,8	0,001
786,2	0,001
786,7	0,002
787,1	0,002
787,5	0,003
788	0,003
788,4	0,004
788,8	0,004
789,3	0,004
789,7	0,004
790,1	0,004
790,6	0,003
791	0,003
791,4	0,003
791,9	0,003
792,3	0,002
792,7	0,003
793,2	0,003
793,6	0,003
794	0,003
794,5	0,003
794,9	0,003
795,3	0,004
795,8	0,004
796,2	0,003
796,6	0,003
797,1	0,003
797,5	0,003
797,9	0,003
798,4	0,003
798,8	0,003
799,2	0,003
799,7	0,003
800,1	0,003
800,5	0,003
801	0,003
801,4	0,003
801,8	0,003
802,2	0,003
802,7	0,003
803,1	0,003
803,5	0,003
804	0,003
804,4	0,003
804,8	0,002
805,3	0,002
805,7	0,002
806,1	0,002
806,6	0,002
807	0,003
807,4	0,003
807,9	0,003
808,3	0,003
808,7	0,003
809,2	0,004
809,6	0,004
810	0,004
810,4	0,004
810,9	0,004
811,3	0,004
811,7	0,004
812,2	0,004
812,6	0,003
813	0,003
813,5	0,003
813,9	0,003
814,3	0,002
814,8	0,002
815,2	0,002
815,6	0,002
816,1	0,002
816,5	0,002
816,9	0,002
817,3	0,002
817,8	0,002
818,2	0,002
818,6	0,003
819,1	0,003
819,5	0,003
819,9	0,003
820,4	0,003
820,8	0,003
821,2	0,003
821,7	0,003
822,1	0,003
822,5	0,003
822,9	0,003
823,4	0,003
823,8	0,003
824,2	0,004
824,7	0,003
825,1	0,003
825,5	0,003
826	0,003
826,4	0,003
826,8	0,003
827,3	0,002
827,7	0,002
828,1	0,002
828,5	0,002
829	0,002
829,4	0,002
829,8	0,003
830,3	0,003
830,7	0,003
831,1	0,003
831,6	0,003
832	0,003
832,4	0,003
832,8	0,003
833,3	0,003
833,7	0,003
834,1	0,003
834,6	0,003
835	0,003
835,4	0,002
835,8	0,002
836,3	0,002
836,7	0,002
837,1	0,002
837,6	0,002
838	0,002
838,4	0,002
838,9	0,002
839,3	0,002
839,7	0,002
840,1	0,002
840,6	0,002
841	0,002
841,4	0,002
841,9	0,003
842,3	0,003
842,7	0,003
843,1	0,003
843,6	0,003
844	0,003
844,4	0,003
844,9	0,002
845,3	0,002
845,7	0,002
846,2	0,002
846,6	0,002
847	0,002
847,4	0,002
847,9	0,002
848,3	0,002
848,7	0,001
849,2	0,001
849,6	0,002
850	0,001
850,4	0,001
850,9	0,002
851,3	0,002
851,7	0,003
852,2	0,003
852,6	0,003
853	0,003
853,4	0,003
853,9	0,003
854,3	0,003
854,7	0,003
855,2	0,003
855,6	0,003
856	0,003
856,4	0,003
856,9	0,003
857,3	0,003
857,7	0,004
858,2	0,004
858,6	0,004
859	0,004
859,4	0,004
859,9	0,004
860,3	0,004
860,7	0,004
861,1	0,004
861,6	0,004
862	0,003
862,4	0,003
862,9	0,003
863,3	0,003
863,7	0,003
864,1	0,004
864,6	0,004
865	0,004
865,4	0,005
865,9	0,004
866,3	0,004
866,7	0,004
867,1	0,004
867,6	0,003
868	0,003
868,4	0,003
868,8	0,004
869,3	0,004
869,7	0,004
870,1	0,004
870,6	0,003
871	0,003
871,4	0,003
871,8	0,002
872,3	0,002
872,7	0,003
873,1	0,003
873,5	0,003
874	0,003
874,4	0,003
874,8	0,003
875,3	0,003
875,7	0,003
876,1	0,002
876,5	0,002
877	0,002
877,4	0,003
877,8	0,003
878,2	0,003
878,7	0,003
879,1	0,003
879,5	0,003
879,9	0,003
880,4	0,002
880,8	0,002
881,2	0,003
881,7	0,003
882,1	0,004
882,5	0,004
882,9	0,004
883,4	0,004
883,8	0,004
884,2	0,004
884,6	0,004
885,1	0,003
885,5	0,003
885,9	0,003
886,3	0,003
886,8	0,003
887,2	0,003
887,6	0,003
888	0,004
888,5	0,004
888,9	0,004
889,3	0,004
889,8	0,005
890,2	0,004
890,6	0,004
891	0,005
891,5	0,004
891,9	0,005
892,3	0,004
892,7	0,004
893,2	0,004
893,6	0,004
894	0,004
894,4	0,003
894,9	0,003
895,3	0,003
895,7	0,003
896,1	0,003
896,6	0,003
897	0,003
897,4	0,003
897,8	0,003
898,3	0,003
898,7	0,003
899,1	0,004
899,5	0,004
900	0,004
900,4	0,004
900,8	0,004
901,2	0,004
901,7	0,004
902,1	0,004
902,5	0,004
902,9	0,004
903,4	0,004
903,8	0,004
904,2	0,004
904,6	0,004
905,1	0,004
905,5	0,004
905,9	0,004
906,3	0,004
906,8	0,004
907,2	0,004
907,6	0,004
908	0,004
908,5	0,004
908,9	0,004
909,3	0,004
909,7	0,004
910,2	0,004
910,6	0,004
911	0,004
911,4	0,004
911,9	0,004
912,3	0,005
912,7	0,004
913,1	0,004
913,6	0,003
914	0,003
914,4	0,003
914,8	0,002
915,3	0,002
915,7	0,002
916,1	0,002
916,5	0,003
916,9	0,002
917,4	0,002
917,8	0,002
918,2	0,003
918,6	0,002
919,1	0,002
919,5	0,002
919,9	0,002
920,3	0,002
920,8	0,002
921,2	0,003
921,6	0,003
922	0,004
922,5	0,004
922,9	0,005
923,3	0,005
923,7	0,004
924,2	0,004
924,6	0,004
925	0,003
925,4	0,003
925,8	0,003
926,3	0,003
926,7	0,003
927,1	0,003
927,5	0,003
928	0,004
928,4	0,003
928,8	0,003
929,2	0,004
929,7	0,004
930,1	0,004
930,5	0,004
930,9	0,004
931,3	0,004
931,8	0,004
932,2	0,004
932,6	0,004
933	0,004
933,5	0,005
933,9	0,005
934,3	0,005
934,7	0,004
935,2	0,004
935,6	0,004
936	0,004
936,4	0,003
936,8	0,003
937,3	0,002
937,7	0,002
938,1	0,003
938,5	0,003
939	0,003
939,4	0,003
939,8	0,003
940,2	0,003
940,6	0,003
941,1	0,003
941,5	0,003
941,9	0,003
942,3	0,003
942,8	0,003
943,2	0,003
943,6	0,003
944	0,003
944,4	0,003
944,9	0,003
945,3	0,003
945,7	0,003
946,1	0,003
946,6	0,003
947	0,003
947,4	0,003
947,8	0,003
948,2	0,003
948,7	0,004
949,1	0,004
949,5	0,004
949,9	0,004
950,3	0,004
950,8	0,004
951,2	0,005
951,6	0,005
952	0,004
952,5	0,004
952,9	0,003
953,3	0,004
953,7	0,004
954,1	0,004
954,6	0,004
955	0,004
955,4	0,004
955,8	0,004
956,2	0,004
956,7	0,004
957,1	0,004
957,5	0,004
957,9	0,004
958,3	0,004
958,8	0,004
959,2	0,004
959,6	0,004
960	0,003
960,5	0,003
960,9	0,004
961,3	0,004
961,7	0,004
962,1	0,005
962,6	0,005
963	0,005
963,4	0,005
963,8	0,005
964,2	0,005
964,7	0,006
965,1	0,005
965,5	0,005
965,9	0,005
966,3	0,005
966,8	0,005
967,2	0,005
967,6	0,004
968	0,004
968,4	0,004
968,9	0,004
969,3	0,004
969,7	0,005
970,1	0,004
970,5	0,004
971	0,004
971,4	0,004
971,8	0,004
972,2	0,004
972,6	0,004
973,1	0,004
973,5	0,004
973,9	0,004
974,3	0,004
974,7	0,003
975,2	0,004
975,6	0,004
976	0,004
976,4	0,004
976,8	0,004
977,3	0,003
977,7	0,004
978,1	0,004
978,5	0,003
978,9	0,004
979,4	0,004
979,8	0,004
980,2	0,004
980,6	0,004
981	0,004
981,5	0,005
981,9	0,004
982,3	0,004
982,7	0,004
983,1	0,004
983,6	0,004
984	0,004
984,4	0,005
984,8	0,005
985,2	0,005
985,6	0,005
986,1	0,006
986,5	0,006
986,9	0,006
987,3	0,006
987,7	0,006
988,2	0,006
988,6	0,006
989	0,006
989,4	0,005
989,8	0,005
990,3	0,004
990,7	0,004
991,1	0,003
991,5	0,004
991,9	0,004
992,3	0,004
992,8	0,003
993,2	0,003
993,6	0,004
994	0,004
994,4	0,004
994,9	0,004
995,3	0,004
995,7	0,004
996,1	0,004
996,5	0,004
996,9	0,004
997,4	0,004
997,8	0,004
998,2	0,004
998,6	0,004
999	0,004
999,5	0,004
999,9	0,004
1000,3	0,004
1000,7	0,004
1001,1	0,004
1001,5	0,004
1002	0,005
1002,4	0,005
1002,8	0,005
1003,2	0,005
1003,6	0,005
1004	0,004
1004,5	0,005
1004,9	0,005
1005,3	0,005
1005,7	0,004
1006,1	0,004
1006,6	0,005
1007	0,005
1007,4	0,004
1007,8	0,004
1008,2	0,004
1008,6	0,004
1009,1	0,004
1009,5	0,004
1009,9	0,005
1010,3	0,005
1010,7	0,005
1011,1	0,006
1011,6	0,006
1012	0,005
1012,4	0,005
1012,8	0,005
1013,2	0,005
1013,6	0,005
1014,1	0,005
1014,5	0,005
1014,9	0,005
1015,3	0,006
1015,7	0,006
1016,1	0,007
1016,6	0,007
1017	0,006
1017,4	0,006
1017,8	0,006
1018,2	0,005
1018,6	0,005
1019,1	0,005
1019,5	0,004
1019,9	0,004
1020,3	0,004
1020,7	0,004
1021,1	0,005
1021,6	0,005
1022	0,004
1022,4	0,005
1022,8	0,006
1023,2	0,006
1023,6	0,007
1024,1	0,007
1024,5	0,007
1024,9	0,006
1025,3	0,005
1025,7	0,006
1026,1	0,005
1026,6	0,004
1027	0,004
1027,4	0,004
1027,8	0,004
1028,2	0,005
1028,6	0,004
1029	0,005
1029,5	0,004
1029,9	0,004
1030,3	0,004
1030,7	0,005
1031,1	0,005
1031,5	0,005
1032	0,005
1032,4	0,006
1032,8	0,006
1033,2	0,006
1033,6	0,006
1034	0,005
1034,4	0,004
1034,9	0,004
1035,3	0,004
1035,7	0,004
1036,1	0,004
1036,5	0,004
1036,9	0,005
1037,4	0,005
1037,8	0,005
1038,2	0,006
1038,6	0,006
1039	0,006
1039,4	0,006
1039,8	0,006
1040,3	0,006
1040,7	0,007
1041,1	0,006
1041,5	0,005
1041,9	0,006
1042,3	0,006
1042,7	0,006
1043,2	0,006
1043,6	0,006
1044	0,006
1044,4	0,006
1044,8	0,006
1045,2	0,005
1045,6	0,006
1046,1	0,005
1046,5	0,005
1046,9	0,004
1047,3	0,005
1047,7	0,004
1048,1	0,003
1048,5	0,004
1049	0,004
1049,4	0,004
1049,8	0,005
1050,2	0,004
1050,6	0,005
1051	0,006
1051,4	0,006
1051,9	0,006
1052,3	0,006
1052,7	0,005
1053,1	0,007
1053,5	0,007
1053,9	0,007
1054,3	0,007
1054,8	0,006
1055,2	0,007
1055,6	0,008
1056	0,008
1056,4	0,007
1056,8	0,006
1057,2	0,006
1057,6	0,006
1058,1	0,005
1058,5	0,005
1058,9	0,004
1059,3	0,006
1059,7	0,006
1060,1	0,006
1060,5	0,007
1061	0,007
1061,4	0,007
1061,8	0,007
1062,2	0,006
1062,6	0,006
1063	0,007
1063,4	0,006
1063,8	0,006
1064,3	0,006
1064,7	0,005
1065,1	0,005
1065,5	0,004
1065,9	0,004
1066,3	0,004
1066,7	0,005
1067,1	0,005
1067,6	0,007
1068	0,007
1068,4	0,007
1068,8	0,007
1069,2	0,006
1069,6	0,007
1070	0,007
1070,4	0,007
1070,9	0,007
1071,3	0,008
1071,7	0,009
1072,1	0,008
1072,5	0,007
1072,9	0,006
1073,3	0,006
1073,7	0,007
1074,2	0,007
1074,6	0,006
1075	0,007
1075,4	0,006
1075,8	0,006
1076,2	0,005
1076,6	0,005
1077	0,005
1077,5	0,005
1077,9	0,005
1078,3	0,006
1078,7	0,007
1079,1	0,008
1079,5	0,006
1079,9	0,007
1080,3	0,005
1080,7	0,006
1081,2	0,007
1081,6	0,007
1082	0,006
1082,4	0,008
1082,8	0,008
1083,2	0,011
1083,6	0,008
1084	0,007
1084,5	0,004
1084,9	0,006
1085,3	0,004
1085,7	0,004
1086,1	0,003
1086,5	0,006
1086,9	0,006
1087,3	0,008
1087,7	0,008
1088,2	0,009
1088,6	0,011
1089	0,01
1089,4	0,011
1089,8	0,013
1090,2	0,015
1090,6	0,013
1091	0,013
1091,4	0,012
1091,9	0,014
1092,3	0,013
1092,7	0,013
1093,1	0,013
1093,5	0,016
1093,9	0,018
1094,3	0,017
1094,7	0,015
1095,1	0,015
1095,5	0,016
1096	0,018
1096,4	0,011
1096,8	0,009
1097,2	0,013
1097,6	0,012
1098	0,017
1098,4	0,013
1098,8	0,009
1099,2	0,015
1099,6	0,026
1100,1	0,026
1100,5	0,033
1100,9	0,032
1101,3	0,038
1101,7	0,044
1102,1	0,045
1102,5	0,035
1102,9	0,029
1103,3	0,018
1103,7	0,018
1104,2	0,018
1104,6	0,021
1105	0,015
1105,4	0,026
1105,8	0,037
1106,2	0,053
1106,6	0,06
1107	0,056
1107,4	0,048
1107,8	0,096
1108,3	0,355
