Data from Absorbance_185.txt Node
Date: Fri Nov 13 20:28:14 MSK 2020
User: vat
Spectrometer: MAYP114033
Trigger mode: 0
Integration Time (sec): 8,000000E-3
Scans to average: 10
Electric dark correction enabled: true
Nonlinearity correction enabled: false
Boxcar width: 3
XAxis mode: Wavelengths
Number of Pixels in Spectrum: 2068
>>>>>Begin Spectral Data<<<<<
199,4	-0
199,9	1,055
200,4	0,388
200,8	0,191
201,3	0,093
201,8	0,129
202,2	0,133
202,7	0,146
203,2	0,124
203,6	0,134
204,1	0,16
204,6	0,155
205	0,15
205,5	0,159
206	0,151
206,4	0,162
206,9	0,155
207,4	0,144
207,8	0,161
208,3	0,146
208,8	0,137
209,2	0,134
209,7	0,108
210,2	0,1
210,6	0,093
211,1	0,087
211,5	0,097
212	0,082
212,5	0,08
212,9	0,106
213,4	0,106
213,9	0,107
214,3	0,116
214,8	0,11
215,3	0,131
215,7	0,133
216,2	0,117
216,7	0,109
217,1	0,118
217,6	0,103
218,1	0,11
218,5	0,094
219	0,092
219,5	0,11
219,9	0,123
220,4	0,124
220,9	0,138
221,3	0,141
221,8	0,161
222,3	0,161
222,7	0,16
223,2	0,169
223,6	0,164
224,1	0,165
224,6	0,164
225	0,168
225,5	0,165
226	0,168
226,4	0,155
226,9	0,162
227,4	0,15
227,8	0,152
228,3	0,14
228,8	0,149
229,2	0,144
229,7	0,151
230,2	0,136
230,6	0,146
231,1	0,146
231,5	0,144
232	0,139
232,5	0,147
232,9	0,15
233,4	0,16
233,9	0,156
234,3	0,148
234,8	0,156
235,3	0,152
235,7	0,147
236,2	0,159
236,7	0,163
237,1	0,164
237,6	0,183
238,1	0,178
238,5	0,192
239	0,19
239,4	0,189
239,9	0,198
240,4	0,216
240,8	0,216
241,3	0,235
241,8	0,23
242,2	0,243
242,7	0,236
243,2	0,231
243,6	0,215
244,1	0,21
244,6	0,196
245	0,197
245,5	0,201
245,9	0,206
246,4	0,219
246,9	0,232
247,3	0,229
247,8	0,246
248,3	0,256
248,7	0,257
249,2	0,275
249,7	0,275
250,1	0,281
250,6	0,286
251	0,284
251,5	0,283
252	0,282
252,4	0,278
252,9	0,279
253,4	0,279
253,8	0,283
254,3	0,285
254,8	0,29
255,2	0,294
255,7	0,299
256,1	0,304
256,6	0,308
257,1	0,313
257,5	0,319
258	0,324
258,5	0,329
258,9	0,335
259,4	0,342
259,9	0,348
260,3	0,354
260,8	0,361
261,2	0,367
261,7	0,374
262,2	0,382
262,6	0,389
263,1	0,397
263,6	0,403
264	0,411
264,5	0,42
264,9	0,428
265,4	0,435
265,9	0,443
266,3	0,451
266,8	0,46
267,3	0,467
267,7	0,476
268,2	0,484
268,7	0,491
269,1	0,5
269,6	0,509
270	0,518
270,5	0,526
271	0,533
271,4	0,541
271,9	0,55
272,4	0,557
272,8	0,564
273,3	0,569
273,7	0,576
274,2	0,583
274,7	0,59
275,1	0,595
275,6	0,601
276,1	0,606
276,5	0,613
277	0,619
277,4	0,624
277,9	0,629
278,4	0,633
278,8	0,636
279,3	0,64
279,8	0,642
280,2	0,645
280,7	0,647
281,1	0,648
281,6	0,648
282,1	0,649
282,5	0,65
283	0,65
283,4	0,648
283,9	0,646
284,4	0,644
284,8	0,643
285,3	0,64
285,8	0,636
286,2	0,632
286,7	0,628
287,1	0,622
287,6	0,617
288,1	0,611
288,5	0,604
289	0,597
289,5	0,59
289,9	0,582
290,4	0,574
290,8	0,566
291,3	0,557
291,8	0,548
292,2	0,537
292,7	0,526
293,1	0,516
293,6	0,504
294,1	0,493
294,5	0,482
295	0,47
295,5	0,459
295,9	0,447
296,4	0,435
296,8	0,423
297,3	0,41
297,8	0,398
298,2	0,386
298,7	0,374
299,1	0,362
299,6	0,35
300,1	0,339
300,5	0,328
301	0,317
301,5	0,306
301,9	0,296
302,4	0,285
302,8	0,275
303,3	0,264
303,8	0,254
304,2	0,244
304,7	0,235
305,1	0,226
305,6	0,218
306,1	0,209
306,5	0,201
307	0,193
307,4	0,187
307,9	0,18
308,4	0,174
308,8	0,167
309,3	0,161
309,8	0,155
310,2	0,15
310,7	0,144
311,1	0,139
311,6	0,134
312,1	0,13
312,5	0,126
313	0,122
313,4	0,118
313,9	0,114
314,4	0,11
314,8	0,107
315,3	0,103
315,7	0,101
316,2	0,098
316,7	0,095
317,1	0,094
317,6	0,092
318	0,09
318,5	0,088
319	0,086
319,4	0,084
319,9	0,082
320,3	0,081
320,8	0,079
321,3	0,077
321,7	0,076
322,2	0,075
322,6	0,074
323,1	0,073
323,6	0,072
324	0,072
324,5	0,07
324,9	0,069
325,4	0,069
325,9	0,068
326,3	0,067
326,8	0,067
327,2	0,066
327,7	0,066
328,2	0,065
328,6	0,064
329,1	0,064
329,5	0,063
330	0,063
330,5	0,062
330,9	0,062
331,4	0,062
331,8	0,061
332,3	0,06
332,8	0,06
333,2	0,059
333,7	0,059
334,1	0,058
334,6	0,058
335,1	0,057
335,5	0,057
336	0,057
336,4	0,057
336,9	0,056
337,4	0,056
337,8	0,056
338,3	0,056
338,7	0,056
339,2	0,055
339,7	0,055
340,1	0,055
340,6	0,054
341	0,054
341,5	0,054
342	0,053
342,4	0,053
342,9	0,053
343,3	0,052
343,8	0,052
344,2	0,052
344,7	0,052
345,2	0,051
345,6	0,052
346,1	0,052
346,5	0,052
347	0,051
347,5	0,051
347,9	0,051
348,4	0,051
348,8	0,05
349,3	0,049
349,8	0,049
350,2	0,049
350,7	0,048
351,1	0,048
351,6	0,048
352	0,048
352,5	0,048
353	0,047
353,4	0,047
353,9	0,047
354,3	0,047
354,8	0,047
355,3	0,047
355,7	0,047
356,2	0,047
356,6	0,046
357,1	0,047
357,5	0,047
358	0,046
358,5	0,046
358,9	0,046
359,4	0,046
359,8	0,046
360,3	0,045
360,8	0,045
361,2	0,045
361,7	0,045
362,1	0,044
362,6	0,044
363	0,044
363,5	0,044
364	0,044
364,4	0,043
364,9	0,043
365,3	0,043
365,8	0,044
366,3	0,043
366,7	0,043
367,2	0,043
367,6	0,043
368,1	0,042
368,5	0,042
369	0,042
369,5	0,041
369,9	0,041
370,4	0,041
370,8	0,041
371,3	0,041
371,7	0,041
372,2	0,04
372,7	0,04
373,1	0,04
373,6	0,04
374	0,04
374,5	0,039
374,9	0,04
375,4	0,04
375,9	0,04
376,3	0,04
376,8	0,039
377,2	0,039
377,7	0,039
378,2	0,038
378,6	0,038
379,1	0,037
379,5	0,037
380	0,036
380,4	0,036
380,9	0,036
381,4	0,035
381,8	0,035
382,3	0,035
382,7	0,035
383,2	0,035
383,6	0,035
384,1	0,035
384,6	0,035
385	0,035
385,5	0,035
385,9	0,036
386,4	0,035
386,8	0,035
387,3	0,035
387,7	0,036
388,2	0,035
388,7	0,035
389,1	0,036
389,6	0,035
390	0,035
390,5	0,035
390,9	0,035
391,4	0,035
391,9	0,035
392,3	0,034
392,8	0,034
393,2	0,034
393,7	0,034
394,1	0,033
394,6	0,033
395,1	0,034
395,5	0,033
396	0,033
396,4	0,033
396,9	0,033
397,3	0,032
397,8	0,032
398,2	0,032
398,7	0,032
399,2	0,031
399,6	0,031
400,1	0,031
400,5	0,031
401	0,031
401,4	0,031
401,9	0,031
402,4	0,031
402,8	0,031
403,3	0,031
403,7	0,031
404,2	0,031
404,6	0,03
405,1	0,031
405,5	0,03
406	0,03
406,5	0,03
406,9	0,03
407,4	0,029
407,8	0,029
408,3	0,029
408,7	0,029
409,2	0,029
409,6	0,029
410,1	0,028
410,6	0,028
411	0,029
411,5	0,029
411,9	0,029
412,4	0,029
412,8	0,029
413,3	0,029
413,7	0,029
414,2	0,029
414,7	0,029
415,1	0,03
415,6	0,029
416	0,029
416,5	0,029
416,9	0,029
417,4	0,029
417,8	0,029
418,3	0,029
418,8	0,029
419,2	0,029
419,7	0,029
420,1	0,029
420,6	0,029
421	0,029
421,5	0,029
421,9	0,028
422,4	0,028
422,8	0,028
423,3	0,028
423,8	0,028
424,2	0,028
424,7	0,028
425,1	0,028
425,6	0,027
426	0,027
426,5	0,027
426,9	0,027
427,4	0,027
427,9	0,027
428,3	0,026
428,8	0,026
429,2	0,026
429,7	0,027
430,1	0,026
430,6	0,026
431	0,026
431,5	0,026
431,9	0,027
432,4	0,026
432,8	0,026
433,3	0,026
433,8	0,026
434,2	0,026
434,7	0,026
435,1	0,025
435,6	0,025
436	0,025
436,5	0,025
436,9	0,025
437,4	0,025
437,8	0,025
438,3	0,025
438,8	0,025
439,2	0,025
439,7	0,025
440,1	0,025
440,6	0,025
441	0,025
441,5	0,026
441,9	0,026
442,4	0,025
442,8	0,026
443,3	0,025
443,7	0,025
444,2	0,024
444,7	0,024
445,1	0,024
445,6	0,024
446	0,025
446,5	0,024
446,9	0,025
447,4	0,025
447,8	0,025
448,3	0,025
448,7	0,024
449,2	0,024
449,6	0,024
450,1	0,024
450,6	0,024
451	0,024
451,5	0,024
451,9	0,024
452,4	0,024
452,8	0,024
453,3	0,024
453,7	0,024
454,2	0,024
454,6	0,024
455,1	0,024
455,5	0,024
456	0,024
456,4	0,024
456,9	0,024
457,3	0,023
457,8	0,023
458,3	0,022
458,7	0,022
459,2	0,022
459,6	0,021
460,1	0,022
460,5	0,022
461	0,023
461,4	0,023
461,9	0,023
462,3	0,023
462,8	0,023
463,2	0,024
463,7	0,023
464,1	0,023
464,6	0,022
465	0,022
465,5	0,022
466	0,021
466,4	0,021
466,9	0,02
467,3	0,02
467,8	0,021
468,2	0,02
468,7	0,021
469,1	0,021
469,6	0,021
470	0,021
470,5	0,021
470,9	0,021
471,4	0,021
471,8	0,021
472,3	0,021
472,7	0,021
473,2	0,021
473,6	0,021
474,1	0,021
474,5	0,021
475	0,021
475,4	0,021
475,9	0,021
476,4	0,021
476,8	0,02
477,3	0,021
477,7	0,02
478,2	0,021
478,6	0,021
479,1	0,02
479,5	0,02
480	0,021
480,4	0,021
480,9	0,021
481,3	0,021
481,8	0,021
482,2	0,021
482,7	0,021
483,1	0,021
483,6	0,022
484	0,022
484,5	0,02
484,9	0,02
485,4	0,02
485,8	0,019
486,3	0,019
486,7	0,019
487,2	0,018
487,6	0,019
488,1	0,019
488,5	0,019
489	0,019
489,4	0,019
489,9	0,019
490,4	0,019
490,8	0,019
491,3	0,019
491,7	0,02
492,2	0,02
492,6	0,02
493,1	0,02
493,5	0,021
494	0,021
494,4	0,02
494,9	0,019
495,3	0,019
495,8	0,019
496,2	0,019
496,7	0,019
497,1	0,019
497,6	0,019
498	0,019
498,5	0,019
498,9	0,019
499,4	0,019
499,8	0,019
500,3	0,019
500,7	0,019
501,2	0,019
501,6	0,019
502,1	0,019
502,5	0,019
503	0,018
503,4	0,019
503,9	0,019
504,3	0,019
504,8	0,019
505,2	0,018
505,7	0,018
506,1	0,017
506,6	0,017
507	0,017
507,5	0,017
507,9	0,016
508,4	0,017
508,8	0,017
509,3	0,017
509,7	0,017
510,2	0,017
510,6	0,017
511,1	0,017
511,5	0,017
512	0,017
512,4	0,017
512,9	0,017
513,3	0,017
513,8	0,017
514,2	0,017
514,7	0,017
515,1	0,017
515,6	0,017
516	0,017
516,5	0,016
516,9	0,016
517,4	0,016
517,8	0,016
518,3	0,015
518,7	0,015
519,2	0,015
519,6	0,015
520,1	0,015
520,5	0,014
521	0,015
521,4	0,015
521,9	0,015
522,3	0,015
522,8	0,015
523,2	0,016
523,7	0,016
524,1	0,016
524,6	0,016
525	0,016
525,5	0,016
525,9	0,016
526,4	0,016
526,8	0,016
527,3	0,015
527,7	0,015
528,2	0,015
528,6	0,015
529,1	0,014
529,5	0,014
530	0,014
530,4	0,013
530,9	0,013
531,3	0,013
531,8	0,014
532,2	0,014
532,6	0,014
533,1	0,014
533,5	0,014
534	0,014
534,4	0,014
534,9	0,014
535,3	0,014
535,8	0,014
536,2	0,013
536,7	0,014
537,1	0,014
537,6	0,014
538	0,014
538,5	0,014
538,9	0,014
539,4	0,015
539,8	0,014
540,3	0,014
540,7	0,014
541,2	0,013
541,6	0,013
542,1	0,013
542,5	0,012
543	0,012
543,4	0,012
543,9	0,012
544,3	0,012
544,8	0,012
545,2	0,012
545,7	0,012
546,1	0,012
546,5	0,013
547	0,013
547,4	0,012
547,9	0,012
548,3	0,012
548,8	0,012
549,2	0,011
549,7	0,011
550,1	0,011
550,6	0,011
551	0,011
551,5	0,011
551,9	0,011
552,4	0,011
552,8	0,011
553,3	0,011
553,7	0,011
554,2	0,011
554,6	0,01
555,1	0,01
555,5	0,01
555,9	0,01
556,4	0,01
556,8	0,01
557,3	0,011
557,7	0,011
558,2	0,011
558,6	0,011
559,1	0,01
559,5	0,01
560	0,01
560,4	0,01
560,9	0,01
561,3	0,01
561,8	0,01
562,2	0,01
562,7	0,01
563,1	0,01
563,6	0,01
564	0,01
564,4	0,01
564,9	0,01
565,3	0,01
565,8	0,01
566,2	0,01
566,7	0,01
567,1	0,01
567,6	0,01
568	0,009
568,5	0,009
568,9	0,01
569,4	0,01
569,8	0,01
570,3	0,01
570,7	0,01
571,1	0,01
571,6	0,01
572	0,01
572,5	0,01
572,9	0,01
573,4	0,01
573,8	0,01
574,3	0,01
574,7	0,009
575,2	0,009
575,6	0,01
576,1	0,01
576,5	0,009
576,9	0,009
577,4	0,009
577,8	0,009
578,3	0,009
578,7	0,008
579,2	0,008
579,6	0,009
580,1	0,008
580,5	0,008
581	0,008
581,4	0,008
581,9	0,008
582,3	0,008
582,7	0,007
583,2	0,007
583,6	0,008
584,1	0,008
584,5	0,008
585	0,008
585,4	0,008
585,9	0,008
586,3	0,008
586,8	0,008
587,2	0,008
587,6	0,008
588,1	0,008
588,5	0,008
589	0,007
589,4	0,008
589,9	0,007
590,3	0,008
590,8	0,008
591,2	0,008
591,7	0,008
592,1	0,008
592,5	0,007
593	0,007
593,4	0,007
593,9	0,007
594,3	0,007
594,8	0,007
595,2	0,007
595,7	0,007
596,1	0,007
596,6	0,007
597	0,007
597,4	0,007
597,9	0,007
598,3	0,007
598,8	0,007
599,2	0,007
599,7	0,007
600,1	0,007
600,6	0,007
601	0,006
601,4	0,006
601,9	0,006
602,3	0,006
602,8	0,006
603,2	0,005
603,7	0,006
604,1	0,006
604,6	0,006
605	0,006
605,4	0,006
605,9	0,006
606,3	0,006
606,8	0,005
607,2	0,006
607,7	0,005
608,1	0,006
608,6	0,006
609	0,005
609,4	0,006
609,9	0,005
610,3	0,005
610,8	0,005
611,2	0,005
611,7	0,005
612,1	0,006
612,6	0,006
613	0,006
613,4	0,006
613,9	0,006
614,3	0,006
614,8	0,005
615,2	0,005
615,7	0,005
616,1	0,005
616,6	0,005
617	0,005
617,4	0,005
617,9	0,006
618,3	0,006
618,8	0,006
619,2	0,006
619,7	0,006
620,1	0,006
620,5	0,005
621	0,006
621,4	0,006
621,9	0,006
622,3	0,006
622,8	0,006
623,2	0,005
623,6	0,006
624,1	0,005
624,5	0,005
625	0,004
625,4	0,004
625,9	0,005
626,3	0,005
626,8	0,004
627,2	0,005
627,6	0,005
628,1	0,005
628,5	0,005
629	0,005
629,4	0,005
629,9	0,005
630,3	0,005
630,7	0,005
631,2	0,005
631,6	0,004
632,1	0,004
632,5	0,004
633	0,004
633,4	0,004
633,8	0,004
634,3	0,005
634,7	0,005
635,2	0,005
635,6	0,005
636,1	0,005
636,5	0,005
636,9	0,005
637,4	0,004
637,8	0,004
638,3	0,004
638,7	0,004
639,2	0,004
639,6	0,004
640	0,004
640,5	0,004
640,9	0,004
641,4	0,004
641,8	0,004
642,2	0,004
642,7	0,004
643,1	0,003
643,6	0,003
644	0,003
644,5	0,003
644,9	0,004
645,3	0,004
645,8	0,004
646,2	0,005
646,7	0,005
647,1	0,005
647,6	0,005
648	0,004
648,4	0,004
648,9	0,004
649,3	0,003
649,8	0,003
650,2	0,003
650,6	0,003
651,1	0,003
651,5	0,003
652	0,004
652,4	0,004
652,9	0,004
653,3	0,007
653,7	0,013
654,2	0,009
654,6	0,007
655,1	0,005
655,5	0,004
655,9	0,004
656,4	0,003
656,8	-0,001
657,3	-0,001
657,7	-0,001
658,2	-0,001
658,6	0,002
659	0,002
659,5	0,002
659,9	0,002
660,4	0,002
660,8	0,002
661,2	0,002
661,7	0,001
662,1	0,001
662,6	0,002
663	0,002
663,4	0,002
663,9	0,002
664,3	0,002
664,8	0,002
665,2	0,002
665,6	0,001
666,1	0,001
666,5	0,001
667	0,001
667,4	0,001
667,9	0,001
668,3	0,002
668,7	0,002
669,2	0,002
669,6	0,002
670,1	0,002
670,5	0,003
670,9	0,003
671,4	0,003
671,8	0,003
672,3	0,002
672,7	0,003
673,1	0,002
673,6	0,002
674	0,002
674,5	0,002
674,9	0,002
675,3	0,002
675,8	0,002
676,2	0,002
676,7	0,002
677,1	0,003
677,5	0,003
678	0,003
678,4	0,003
678,9	0,003
679,3	0,002
679,7	0,002
680,2	0,002
680,6	0,002
681,1	0,002
681,5	0,002
681,9	0,002
682,4	0,002
682,8	0,002
683,3	0,003
683,7	0,003
684,1	0,003
684,6	0,002
685	0,002
685,5	0,002
685,9	0,002
686,3	0,002
686,8	0,001
687,2	0,002
687,7	0,002
688,1	0,001
688,5	0,001
689	0,001
689,4	0,002
689,9	0,002
690,3	0,001
690,7	0,002
691,2	0,002
691,6	0,001
692	0,001
692,5	0,001
692,9	0,001
693,4	0,001
693,8	0,001
694,2	0,002
694,7	0,002
695,1	0,002
695,6	0,002
696	0,002
696,4	0,002
696,9	0,002
697,3	0,002
697,8	0,002
698,2	0,001
698,6	0,001
699,1	0,001
699,5	0,001
699,9	0,001
700,4	0,001
700,8	0,001
701,3	0,001
701,7	0,001
702,1	0,001
702,6	0,001
703	0,001
703,5	0,002
703,9	0,002
704,3	0,002
704,8	0,002
705,2	0,002
705,6	0,002
706,1	0,002
706,5	0,002
707	0,002
707,4	0,002
707,8	0,002
708,3	0,002
708,7	0,001
709,2	0,001
709,6	0,001
710	0,001
710,5	0,001
710,9	0,001
711,3	0,001
711,8	0,001
712,2	0,001
712,7	0,001
713,1	0,001
713,5	0,001
714	0,002
714,4	0,002
714,8	0,002
715,3	0,002
715,7	0,001
716,2	0,001
716,6	0,001
717	0,001
717,5	0,001
717,9	0,001
718,3	0,001
718,8	0,001
719,2	0,002
719,7	0,002
720,1	0,002
720,5	0,002
721	0,002
721,4	0,002
721,8	0,002
722,3	0,002
722,7	0,001
723,2	0,002
723,6	0,002
724	0,002
724,5	0,002
724,9	0,001
725,3	0,001
725,8	0,001
726,2	0,001
726,7	0,001
727,1	0,001
727,5	0,001
728	0,001
728,4	0,001
728,8	0,002
729,3	0,002
729,7	0,002
730,1	0,002
730,6	0,002
731	0,002
731,5	0,002
731,9	0,002
732,3	0,002
732,8	0,001
733,2	0,001
733,6	0,001
734,1	0,001
734,5	0,001
734,9	0,001
735,4	0,001
735,8	0,001
736,3	0,001
736,7	0,001
737,1	0,001
737,6	0,002
738	0,002
738,4	0,002
738,9	0,002
739,3	0,002
739,7	0,001
740,2	0,001
740,6	0,001
741,1	0,001
741,5	0,001
741,9	0
742,4	0,001
742,8	0,001
743,2	0,001
743,7	0
744,1	0
744,5	0,001
745	0,001
745,4	0,001
745,8	0,001
746,3	0,001
746,7	0,001
747,2	0,001
747,6	0,001
748	0,001
748,5	0,001
748,9	0,001
749,3	0,001
749,8	0,001
750,2	0,002
750,6	0,002
751,1	0,002
751,5	0,001
751,9	0,001
752,4	0,001
752,8	0,001
753,3	0
753,7	0
754,1	0
754,6	0,001
755	0,001
755,4	0,001
755,9	0,001
756,3	0
756,7	0,001
757,2	0,001
757,6	0,001
758	0,001
758,5	0,002
758,9	0,002
759,3	0,001
759,8	0,002
760,2	0,002
760,6	0,001
761,1	0,001
761,5	0,001
761,9	0,001
762,4	0,001
762,8	0,001
763,3	0,001
763,7	0,001
764,1	0,001
764,6	0,001
765	0,002
765,4	0,002
765,9	0,002
766,3	0,002
766,7	0,002
767,2	0,003
767,6	0,002
768	0,002
768,5	0,003
768,9	0,003
769,3	0,002
769,8	0,002
770,2	0,002
770,6	0,002
771,1	0,001
771,5	0,001
771,9	0,001
772,4	0,001
772,8	0
773,2	0
773,7	-0
774,1	-0
774,5	-0,001
775	-0,001
775,4	-0,001
775,8	-0,001
776,3	-0,001
776,7	-0
777,1	-0
777,6	0
778	0
778,4	0
778,9	0
779,3	0,001
779,7	0
780,2	0
780,6	0,001
781	0,001
781,5	0,001
781,9	0,001
782,3	0
782,8	0
783,2	0,001
783,6	0
784,1	-0
784,5	-0
784,9	-0
785,4	0
785,8	0
786,2	0
786,7	0
787,1	0,001
787,5	0,001
788	0,001
788,4	0,001
788,8	0,001
789,3	0,002
789,7	0,002
790,1	0,001
790,6	0,002
791	0,002
791,4	0,001
791,9	0,001
792,3	0,002
792,7	0,002
793,2	0,002
793,6	0,002
794	0,002
794,5	0,002
794,9	0,002
795,3	0,002
795,8	0,002
796,2	0,002
796,6	0,002
797,1	0,002
797,5	0,002
797,9	0,001
798,4	0,001
798,8	0,001
799,2	0,001
799,7	0,001
800,1	0,001
800,5	0,001
801	0,001
801,4	0,001
801,8	0,002
802,2	0,001
802,7	0,002
803,1	0,002
803,5	0,001
804	0,001
804,4	0,001
804,8	0,001
805,3	0,001
805,7	0
806,1	0,001
806,6	0,001
807	0,001
807,4	0,001
807,9	0,001
808,3	0,001
808,7	0,002
809,2	0,002
809,6	0,002
810	0,002
810,4	0,002
810,9	0,002
811,3	0,002
811,7	0,002
812,2	0,001
812,6	0,001
813	0,001
813,5	0,001
813,9	0
814,3	0,001
814,8	0,001
815,2	0
815,6	0
816,1	0
816,5	0
816,9	0
817,3	0,001
817,8	0
818,2	0,001
818,6	0,001
819,1	0,001
819,5	0,001
819,9	0,001
820,4	0
820,8	0
821,2	0
821,7	-0
822,1	-0
822,5	-0
822,9	0
823,4	0
823,8	0,001
824,2	0,001
824,7	0,001
825,1	0,001
825,5	0,001
826	0,001
826,4	0,001
826,8	0
827,3	0
827,7	0
828,1	-0
828,5	-0
829	0
829,4	0
829,8	0
830,3	0
830,7	0
831,1	0,001
831,6	0,001
832	0,001
832,4	0,001
832,8	0,001
833,3	0,001
833,7	0,001
834,1	0,001
834,6	0,001
835	0,001
835,4	0
835,8	0
836,3	0,001
836,7	0
837,1	-0
837,6	0
838	-0
838,4	-0
838,9	-0
839,3	-0
839,7	-0
840,1	0
840,6	0
841	0
841,4	0,001
841,9	0,001
842,3	0,001
842,7	0,001
843,1	0,001
843,6	0,001
844	0,002
844,4	0,001
844,9	0,001
845,3	0,001
845,7	0,001
846,2	0,001
846,6	0
847	0
847,4	-0
847,9	-0
848,3	0
848,7	-0
849,2	-0
849,6	0
850	0
850,4	0
850,9	-0
851,3	-0
851,7	0
852,2	0
852,6	0
853	0
853,4	0
853,9	0
854,3	0
854,7	0
855,2	0
855,6	0,001
856	0,001
856,4	0,001
856,9	0,001
857,3	0,001
857,7	0,001
858,2	0,001
858,6	0,001
859	0,001
859,4	0,001
859,9	0,001
860,3	0,001
860,7	0,001
861,1	0,001
861,6	0,001
862	0,001
862,4	0,001
862,9	0,001
863,3	0,001
863,7	0,001
864,1	0,002
864,6	0,002
865	0,002
865,4	0,003
865,9	0,002
866,3	0,002
866,7	0,002
867,1	0,001
867,6	0,001
868	0,001
868,4	0,001
868,8	0,002
869,3	0,002
869,7	0,002
870,1	0,002
870,6	0,002
871	0,002
871,4	0,001
871,8	0,001
872,3	0,001
872,7	0,001
873,1	0,001
873,5	0,001
874	0,001
874,4	0,001
874,8	0,002
875,3	0,002
875,7	0,001
876,1	0,002
876,5	0,001
877	0,001
877,4	0,001
877,8	0,002
878,2	0,002
878,7	0,002
879,1	0,002
879,5	0,001
879,9	0,001
880,4	0,001
880,8	0,001
881,2	0
881,7	0,001
882,1	0,001
882,5	0,001
882,9	0,001
883,4	0,001
883,8	0,001
884,2	0,001
884,6	0,001
885,1	0,001
885,5	0,001
885,9	0,001
886,3	0,001
886,8	0,001
887,2	0,001
887,6	0,001
888	0,001
888,5	0,002
888,9	0,002
889,3	0,002
889,8	0,002
890,2	0,002
890,6	0,002
891	0,002
891,5	0,002
891,9	0,002
892,3	0,002
892,7	0,001
893,2	0,001
893,6	0,001
894	0,001
894,4	0,001
894,9	0,001
895,3	0,001
895,7	0,001
896,1	0,001
896,6	0,001
897	0,001
897,4	0
897,8	0
898,3	0,001
898,7	0,001
899,1	0,001
899,5	0,001
900	0,001
900,4	0,001
900,8	0,002
901,2	0,002
901,7	0,002
902,1	0,002
902,5	0,002
902,9	0,002
903,4	0,002
903,8	0,002
904,2	0,002
904,6	0,002
905,1	0,002
905,5	0,002
905,9	0,002
906,3	0,002
906,8	0,002
907,2	0,002
907,6	0,002
908	0,002
908,5	0,002
908,9	0,002
909,3	0,002
909,7	0,001
910,2	0,001
910,6	0,002
911	0,002
911,4	0,002
911,9	0,002
912,3	0,002
912,7	0,002
913,1	0,001
913,6	0,001
914	0,001
914,4	0,001
914,8	0
915,3	0
915,7	0
916,1	0
916,5	0
916,9	-0
917,4	-0
917,8	-0
918,2	-0,001
918,6	-0,001
919,1	-0,001
919,5	-0
919,9	-0
920,3	0
920,8	0
921,2	0,001
921,6	0,002
922	0,002
922,5	0,002
922,9	0,002
923,3	0,002
923,7	0,002
924,2	0,002
924,6	0,001
925	0
925,4	-0
925,8	-0
926,3	-0
926,7	-0,001
927,1	-0
927,5	0
928	0
928,4	0,001
928,8	0
929,2	0
929,7	0,001
930,1	0
930,5	0
930,9	0
931,3	0
931,8	0,001
932,2	0,001
932,6	0,001
933	0,001
933,5	0,002
933,9	0,002
934,3	0,002
934,7	0,002
935,2	0,001
935,6	0,001
936	0,001
936,4	0,001
936,8	-0
937,3	-0
937,7	-0
938,1	-0
938,5	-0
939	-0
939,4	-0,001
939,8	-0
940,2	-0
940,6	-0
941,1	0
941,5	0,001
941,9	0,001
942,3	0,001
942,8	0,001
943,2	0,001
943,6	0,001
944	0
944,4	0
944,9	-0
945,3	-0
945,7	-0
946,1	-0
946,6	0
947	0
947,4	-0
947,8	0
948,2	0
948,7	0
949,1	0,001
949,5	0,002
949,9	0,002
950,3	0,002
950,8	0,002
951,2	0,002
951,6	0,002
952	0,001
952,5	0,001
952,9	0
953,3	0
953,7	0
954,1	0
954,6	0
955	0
955,4	0
955,8	0
956,2	0
956,7	-0
957,1	0
957,5	-0
957,9	-0
958,3	-0
958,8	-0
959,2	-0,001
959,6	-0
960	-0,001
960,5	-0
960,9	-0
961,3	0,001
961,7	0,001
962,1	0,001
962,6	0,002
963	0,002
963,4	0,003
963,8	0,003
964,2	0,003
964,7	0,003
965,1	0,003
965,5	0,003
965,9	0,003
966,3	0,002
966,8	0,002
967,2	0,002
967,6	0,002
968	0,001
968,4	0,001
968,9	0,001
969,3	0,001
969,7	0,001
970,1	0,001
970,5	0,001
971	0,001
971,4	0,001
971,8	0
972,2	0
972,6	0
973,1	0
973,5	0
973,9	-0
974,3	0
974,7	0
975,2	0,001
975,6	0,001
976	0
976,4	0
976,8	0,001
977,3	-0
977,7	0
978,1	0
978,5	-0
978,9	-0
979,4	-0
979,8	-0
980,2	0
980,6	0
981	-0
981,5	0
981,9	0
982,3	0
982,7	0,001
983,1	0
983,6	0,001
984	0,002
984,4	0,002
984,8	0,002
985,2	0,002
985,6	0,002
986,1	0,002
986,5	0,003
986,9	0,003
987,3	0,003
987,7	0,003
988,2	0,003
988,6	0,004
989	0,003
989,4	0,002
989,8	0,002
990,3	0,001
990,7	0,001
991,1	0
991,5	0
991,9	0,001
992,3	0,001
992,8	0,001
993,2	0,001
993,6	0,001
994	0,002
994,4	0,002
994,9	0,002
995,3	0,001
995,7	0,002
996,1	0,002
996,5	0,002
996,9	0,002
997,4	0,002
997,8	0,002
998,2	0,002
998,6	0,002
999	0,002
999,5	0,003
999,9	0,003
1000,3	0,003
1000,7	0,003
1001,1	0,003
1001,5	0,003
1002	0,003
1002,4	0,003
1002,8	0,003
1003,2	0,003
1003,6	0,003
1004	0,003
1004,5	0,003
1004,9	0,003
1005,3	0,003
1005,7	0,003
1006,1	0,002
1006,6	0,003
1007	0,003
1007,4	0,002
1007,8	0,002
1008,2	0,002
1008,6	0,002
1009,1	0,002
1009,5	0,002
1009,9	0,002
1010,3	0,002
1010,7	0,002
1011,1	0,003
1011,6	0,003
1012	0,003
1012,4	0,004
1012,8	0,003
1013,2	0,004
1013,6	0,003
1014,1	0,003
1014,5	0,004
1014,9	0,003
1015,3	0,003
1015,7	0,004
1016,1	0,004
1016,6	0,004
1017	0,004
1017,4	0,004
1017,8	0,004
1018,2	0,004
1018,6	0,005
1019,1	0,004
1019,5	0,004
1019,9	0,004
1020,3	0,003
1020,7	0,003
1021,1	0,003
1021,6	0,002
1022	0,003
1022,4	0,004
1022,8	0,004
1023,2	0,005
1023,6	0,006
1024,1	0,005
1024,5	0,005
1024,9	0,005
1025,3	0,003
1025,7	0,003
1026,1	0,003
1026,6	0,002
1027	0,002
1027,4	0,002
1027,8	0,002
1028,2	0,003
1028,6	0,003
1029	0,003
1029,5	0,004
1029,9	0,004
1030,3	0,005
1030,7	0,005
1031,1	0,005
1031,5	0,005
1032	0,005
1032,4	0,005
1032,8	0,005
1033,2	0,005
1033,6	0,004
1034	0,003
1034,4	0,003
1034,9	0,003
1035,3	0,003
1035,7	0,003
1036,1	0,003
1036,5	0,003
1036,9	0,003
1037,4	0,002
1037,8	0,003
1038,2	0,003
1038,6	0,003
1039	0,003
1039,4	0,003
1039,8	0,003
1040,3	0,004
1040,7	0,003
1041,1	0,002
1041,5	0,002
1041,9	0,003
1042,3	0,003
1042,7	0,003
1043,2	0,003
1043,6	0,003
1044	0,004
1044,4	0,004
1044,8	0,004
1045,2	0,004
1045,6	0,004
1046,1	0,004
1046,5	0,004
1046,9	0,004
1047,3	0,003
1047,7	0,003
1048,1	0,002
1048,5	0,003
1049	0,003
1049,4	0,003
1049,8	0,004
1050,2	0,005
1050,6	0,006
1051	0,006
1051,4	0,006
1051,9	0,006
1052,3	0,006
1052,7	0,005
1053,1	0,005
1053,5	0,005
1053,9	0,005
1054,3	0,004
1054,8	0,004
1055,2	0,004
1055,6	0,004
1056	0,004
1056,4	0,004
1056,8	0,004
1057,2	0,004
1057,6	0,004
1058,1	0,005
1058,5	0,005
1058,9	0,005
1059,3	0,006
1059,7	0,006
1060,1	0,007
1060,5	0,007
1061	0,007
1061,4	0,006
1061,8	0,006
1062,2	0,005
1062,6	0,006
1063	0,005
1063,4	0,005
1063,8	0,005
1064,3	0,005
1064,7	0,004
1065,1	0,004
1065,5	0,003
1065,9	0,003
1066,3	0,004
1066,7	0,004
1067,1	0,004
1067,6	0,006
1068	0,005
1068,4	0,006
1068,8	0,005
1069,2	0,005
1069,6	0,006
1070	0,005
1070,4	0,005
1070,9	0,006
1071,3	0,006
1071,7	0,007
1072,1	0,006
1072,5	0,005
1072,9	0,005
1073,3	0,005
1073,7	0,005
1074,2	0,006
1074,6	0,005
1075	0,007
1075,4	0,006
1075,8	0,007
1076,2	0,007
1076,6	0,006
1077	0,007
1077,5	0,008
1077,9	0,007
1078,3	0,008
1078,7	0,009
1079,1	0,011
1079,5	0,011
1079,9	0,01
1080,3	0,01
1080,7	0,01
1081,2	0,01
1081,6	0,009
1082	0,009
1082,4	0,01
1082,8	0,009
1083,2	0,011
1083,6	0,01
1084	0,011
1084,5	0,01
1084,9	0,012
1085,3	0,011
1085,7	0,011
1086,1	0,01
1086,5	0,011
1086,9	0,01
1087,3	0,011
1087,7	0,009
1088,2	0,009
1088,6	0,009
1089	0,012
1089,4	0,013
1089,8	0,014
1090,2	0,015
1090,6	0,018
1091	0,019
1091,4	0,019
1091,9	0,017
1092,3	0,019
1092,7	0,02
1093,1	0,022
1093,5	0,019
1093,9	0,021
1094,3	0,02
1094,7	0,022
1095,1	0,02
1095,5	0,012
1096	0,011
1096,4	0,014
1096,8	0,011
1097,2	0,016
1097,6	0,022
1098	0,024
1098,4	0,033
1098,8	0,035
1099,2	0,037
1099,6	0,051
1100,1	0,056
1100,5	0,053
1100,9	0,052
1101,3	0,047
1101,7	0,047
1102,1	0,055
1102,5	0,044
1102,9	0,035
1103,3	0,039
1103,7	0,049
1104,2	0,056
1104,6	0,066
1105	0,057
1105,4	0,071
1105,8	0,094
1106,2	0,089
1106,6	0,083
1107	0,108
1107,4	0,115
1107,8	0,183
1108,3	-0
