Data from Absorbance_031.txt Node
Date: Fri Nov 13 13:15:00 MSK 2020
User: vat
Spectrometer: MAYP114033
Trigger mode: 0
Integration Time (sec): 8,000000E-3
Scans to average: 10
Electric dark correction enabled: true
Nonlinearity correction enabled: false
Boxcar width: 3
XAxis mode: Wavelengths
Number of Pixels in Spectrum: 2068
>>>>>Begin Spectral Data<<<<<
199,4	-0
199,9	0,113
200,4	0,089
200,8	0,061
201,3	0,023
201,8	0,081
202,2	0,054
202,7	0,038
203,2	0,031
203,6	0,052
204,1	0,045
204,6	0,034
205	0,008
205,5	0,011
206	0,016
206,4	0,01
206,9	-0,01
207,4	-0,021
207,8	-0,001
208,3	0,004
208,8	0,014
209,2	0,027
209,7	0,027
210,2	0,034
210,6	0,045
211,1	0,034
211,5	0,039
212	0,036
212,5	0,021
212,9	0,027
213,4	0,002
213,9	0,015
214,3	0,021
214,8	0,019
215,3	0,017
215,7	0,011
216,2	0,004
216,7	0,007
217,1	-0,008
217,6	0,007
218,1	0,027
218,5	0,021
219	0,029
219,5	0,058
219,9	0,059
220,4	0,05
220,9	0,03
221,3	0,018
221,8	0,023
222,3	0,028
222,7	0,016
223,2	0,032
223,6	0,058
224,1	0,057
224,6	0,058
225	0,062
225,5	0,043
226	0,041
226,4	0,042
226,9	0,024
227,4	0,022
227,8	0,006
228,3	0,002
228,8	-0,001
229,2	-0,006
229,7	-0,012
230,2	-0,004
230,6	0,003
231,1	0,01
231,5	0,013
232	0,021
232,5	0,019
232,9	0,025
233,4	0,016
233,9	0,024
234,3	0,027
234,8	0,016
235,3	0,02
235,7	0,02
236,2	0,027
236,7	0,03
237,1	0,023
237,6	0,011
238,1	0,017
238,5	0,029
239	0,03
239,4	0,017
239,9	0,027
240,4	0,018
240,8	0,037
241,3	0,039
241,8	0,016
242,2	0,025
242,7	0,027
243,2	0,021
243,6	0,033
244,1	0,028
244,6	0,025
245	0,036
245,5	0,035
245,9	0,036
246,4	0,038
246,9	0,037
247,3	0,034
247,8	0,034
248,3	0,039
248,7	0,037
249,2	0,038
249,7	0,038
250,1	0,038
250,6	0,035
251	0,032
251,5	0,031
252	0,03
252,4	0,029
252,9	0,028
253,4	0,027
253,8	0,026
254,3	0,025
254,8	0,026
255,2	0,026
255,7	0,025
256,1	0,027
256,6	0,027
257,1	0,029
257,5	0,031
258	0,032
258,5	0,034
258,9	0,038
259,4	0,039
259,9	0,041
260,3	0,043
260,8	0,046
261,2	0,048
261,7	0,051
262,2	0,053
262,6	0,055
263,1	0,058
263,6	0,06
264	0,062
264,5	0,065
264,9	0,068
265,4	0,07
265,9	0,073
266,3	0,076
266,8	0,079
267,3	0,083
267,7	0,085
268,2	0,088
268,7	0,091
269,1	0,094
269,6	0,097
270	0,099
270,5	0,102
271	0,105
271,4	0,108
271,9	0,111
272,4	0,114
272,8	0,117
273,3	0,121
273,7	0,123
274,2	0,127
274,7	0,129
275,1	0,132
275,6	0,134
276,1	0,137
276,5	0,138
277	0,14
277,4	0,142
277,9	0,144
278,4	0,146
278,8	0,147
279,3	0,149
279,8	0,151
280,2	0,152
280,7	0,153
281,1	0,155
281,6	0,155
282,1	0,156
282,5	0,156
283	0,156
283,4	0,157
283,9	0,157
284,4	0,157
284,8	0,156
285,3	0,155
285,8	0,155
286,2	0,153
286,7	0,152
287,1	0,15
287,6	0,148
288,1	0,146
288,5	0,144
289	0,142
289,5	0,141
289,9	0,139
290,4	0,137
290,8	0,134
291,3	0,132
291,8	0,13
292,2	0,127
292,7	0,123
293,1	0,12
293,6	0,116
294,1	0,112
294,5	0,109
295	0,104
295,5	0,101
295,9	0,097
296,4	0,094
296,8	0,09
297,3	0,086
297,8	0,082
298,2	0,078
298,7	0,074
299,1	0,07
299,6	0,066
300,1	0,062
300,5	0,058
301	0,054
301,5	0,051
301,9	0,047
302,4	0,044
302,8	0,041
303,3	0,038
303,8	0,034
304,2	0,031
304,7	0,028
305,1	0,026
305,6	0,023
306,1	0,02
306,5	0,017
307	0,015
307,4	0,012
307,9	0,01
308,4	0,008
308,8	0,006
309,3	0,004
309,8	0,002
310,2	0
310,7	-0,001
311,1	-0,003
311,6	-0,004
312,1	-0,006
312,5	-0,007
313	-0,008
313,4	-0,009
313,9	-0,01
314,4	-0,011
314,8	-0,012
315,3	-0,012
315,7	-0,013
316,2	-0,014
316,7	-0,014
317,1	-0,015
317,6	-0,016
318	-0,016
318,5	-0,017
319	-0,017
319,4	-0,018
319,9	-0,018
320,3	-0,019
320,8	-0,019
321,3	-0,02
321,7	-0,02
322,2	-0,02
322,6	-0,021
323,1	-0,021
323,6	-0,021
324	-0,021
324,5	-0,022
324,9	-0,022
325,4	-0,022
325,9	-0,022
326,3	-0,022
326,8	-0,022
327,2	-0,022
327,7	-0,023
328,2	-0,023
328,6	-0,023
329,1	-0,023
329,5	-0,023
330	-0,023
330,5	-0,024
330,9	-0,024
331,4	-0,024
331,8	-0,024
332,3	-0,024
332,8	-0,023
333,2	-0,024
333,7	-0,023
334,1	-0,023
334,6	-0,023
335,1	-0,024
335,5	-0,024
336	-0,024
336,4	-0,024
336,9	-0,024
337,4	-0,024
337,8	-0,024
338,3	-0,024
338,7	-0,024
339,2	-0,024
339,7	-0,024
340,1	-0,025
340,6	-0,025
341	-0,024
341,5	-0,025
342	-0,025
342,4	-0,025
342,9	-0,025
343,3	-0,024
343,8	-0,024
344,2	-0,025
344,7	-0,024
345,2	-0,024
345,6	-0,024
346,1	-0,024
346,5	-0,024
347	-0,024
347,5	-0,024
347,9	-0,024
348,4	-0,024
348,8	-0,024
349,3	-0,024
349,8	-0,024
350,2	-0,024
350,7	-0,024
351,1	-0,024
351,6	-0,024
352	-0,025
352,5	-0,025
353	-0,025
353,4	-0,025
353,9	-0,025
354,3	-0,024
354,8	-0,024
355,3	-0,024
355,7	-0,024
356,2	-0,024
356,6	-0,024
357,1	-0,024
357,5	-0,024
358	-0,024
358,5	-0,024
358,9	-0,024
359,4	-0,024
359,8	-0,024
360,3	-0,024
360,8	-0,025
361,2	-0,025
361,7	-0,025
362,1	-0,025
362,6	-0,026
363	-0,026
363,5	-0,026
364	-0,026
364,4	-0,026
364,9	-0,026
365,3	-0,025
365,8	-0,025
366,3	-0,026
366,7	-0,025
367,2	-0,025
367,6	-0,025
368,1	-0,025
368,5	-0,025
369	-0,025
369,5	-0,025
369,9	-0,025
370,4	-0,025
370,8	-0,025
371,3	-0,025
371,7	-0,025
372,2	-0,024
372,7	-0,025
373,1	-0,025
373,6	-0,024
374	-0,025
374,5	-0,025
374,9	-0,024
375,4	-0,025
375,9	-0,025
376,3	-0,025
376,8	-0,025
377,2	-0,025
377,7	-0,025
378,2	-0,025
378,6	-0,025
379,1	-0,025
379,5	-0,025
380	-0,026
380,4	-0,026
380,9	-0,026
381,4	-0,027
381,8	-0,027
382,3	-0,027
382,7	-0,026
383,2	-0,026
383,6	-0,026
384,1	-0,026
384,6	-0,025
385	-0,025
385,5	-0,025
385,9	-0,024
386,4	-0,025
386,8	-0,024
387,3	-0,025
387,7	-0,026
388,2	-0,026
388,7	-0,026
389,1	-0,026
389,6	-0,026
390	-0,026
390,5	-0,025
390,9	-0,026
391,4	-0,026
391,9	-0,026
392,3	-0,026
392,8	-0,026
393,2	-0,025
393,7	-0,026
394,1	-0,025
394,6	-0,025
395,1	-0,025
395,5	-0,025
396	-0,025
396,4	-0,026
396,9	-0,026
397,3	-0,026
397,8	-0,026
398,2	-0,027
398,7	-0,027
399,2	-0,026
399,6	-0,026
400,1	-0,026
400,5	-0,025
401	-0,025
401,4	-0,025
401,9	-0,025
402,4	-0,025
402,8	-0,025
403,3	-0,025
403,7	-0,025
404,2	-0,026
404,6	-0,026
405,1	-0,025
405,5	-0,026
406	-0,026
406,5	-0,026
406,9	-0,026
407,4	-0,026
407,8	-0,026
408,3	-0,026
408,7	-0,026
409,2	-0,026
409,6	-0,026
410,1	-0,026
410,6	-0,026
411	-0,026
411,5	-0,026
411,9	-0,026
412,4	-0,026
412,8	-0,026
413,3	-0,026
413,7	-0,026
414,2	-0,026
414,7	-0,026
415,1	-0,026
415,6	-0,026
416	-0,026
416,5	-0,026
416,9	-0,026
417,4	-0,025
417,8	-0,025
418,3	-0,025
418,8	-0,026
419,2	-0,026
419,7	-0,025
420,1	-0,025
420,6	-0,026
421	-0,026
421,5	-0,026
421,9	-0,025
422,4	-0,025
422,8	-0,025
423,3	-0,026
423,8	-0,026
424,2	-0,025
424,7	-0,025
425,1	-0,025
425,6	-0,026
426	-0,026
426,5	-0,026
426,9	-0,026
427,4	-0,026
427,9	-0,026
428,3	-0,026
428,8	-0,025
429,2	-0,026
429,7	-0,026
430,1	-0,026
430,6	-0,026
431	-0,027
431,5	-0,027
431,9	-0,027
432,4	-0,026
432,8	-0,026
433,3	-0,026
433,8	-0,026
434,2	-0,025
434,7	-0,025
435,1	-0,025
435,6	-0,026
436	-0,026
436,5	-0,026
436,9	-0,025
437,4	-0,025
437,8	-0,025
438,3	-0,025
438,8	-0,025
439,2	-0,025
439,7	-0,025
440,1	-0,025
440,6	-0,026
441	-0,026
441,5	-0,025
441,9	-0,026
442,4	-0,026
442,8	-0,025
443,3	-0,025
443,7	-0,025
444,2	-0,025
444,7	-0,025
445,1	-0,024
445,6	-0,025
446	-0,025
446,5	-0,025
446,9	-0,026
447,4	-0,026
447,8	-0,026
448,3	-0,026
448,7	-0,025
449,2	-0,025
449,6	-0,025
450,1	-0,025
450,6	-0,026
451	-0,026
451,5	-0,026
451,9	-0,026
452,4	-0,026
452,8	-0,026
453,3	-0,026
453,7	-0,025
454,2	-0,025
454,6	-0,025
455,1	-0,025
455,5	-0,025
456	-0,025
456,4	-0,026
456,9	-0,026
457,3	-0,026
457,8	-0,026
458,3	-0,026
458,7	-0,026
459,2	-0,026
459,6	-0,026
460,1	-0,026
460,5	-0,026
461	-0,026
461,4	-0,026
461,9	-0,025
462,3	-0,025
462,8	-0,025
463,2	-0,025
463,7	-0,025
464,1	-0,025
464,6	-0,025
465	-0,025
465,5	-0,026
466	-0,026
466,4	-0,026
466,9	-0,026
467,3	-0,026
467,8	-0,026
468,2	-0,026
468,7	-0,026
469,1	-0,025
469,6	-0,025
470	-0,026
470,5	-0,026
470,9	-0,025
471,4	-0,025
471,8	-0,025
472,3	-0,025
472,7	-0,025
473,2	-0,025
473,6	-0,025
474,1	-0,025
474,5	-0,025
475	-0,025
475,4	-0,026
475,9	-0,026
476,4	-0,025
476,8	-0,026
477,3	-0,025
477,7	-0,025
478,2	-0,025
478,6	-0,025
479,1	-0,025
479,5	-0,026
480	-0,025
480,4	-0,026
480,9	-0,025
481,3	-0,025
481,8	-0,025
482,2	-0,025
482,7	-0,025
483,1	-0,025
483,6	-0,025
484	-0,024
484,5	-0,026
484,9	-0,027
485,4	-0,027
485,8	-0,027
486,3	-0,027
486,7	-0,027
487,2	-0,028
487,6	-0,026
488,1	-0,024
488,5	-0,024
489	-0,024
489,4	-0,024
489,9	-0,024
490,4	-0,024
490,8	-0,024
491,3	-0,025
491,7	-0,024
492,2	-0,025
492,6	-0,024
493,1	-0,024
493,5	-0,025
494	-0,025
494,4	-0,024
494,9	-0,025
495,3	-0,025
495,8	-0,025
496,2	-0,025
496,7	-0,025
497,1	-0,025
497,6	-0,025
498	-0,024
498,5	-0,024
498,9	-0,024
499,4	-0,025
499,8	-0,025
500,3	-0,025
500,7	-0,025
501,2	-0,025
501,6	-0,025
502,1	-0,025
502,5	-0,025
503	-0,024
503,4	-0,024
503,9	-0,025
504,3	-0,025
504,8	-0,025
505,2	-0,025
505,7	-0,025
506,1	-0,025
506,6	-0,025
507	-0,025
507,5	-0,025
507,9	-0,025
508,4	-0,025
508,8	-0,025
509,3	-0,025
509,7	-0,024
510,2	-0,024
510,6	-0,024
511,1	-0,023
511,5	-0,024
512	-0,024
512,4	-0,024
512,9	-0,024
513,3	-0,025
513,8	-0,025
514,2	-0,025
514,7	-0,025
515,1	-0,025
515,6	-0,025
516	-0,024
516,5	-0,025
516,9	-0,024
517,4	-0,024
517,8	-0,025
518,3	-0,025
518,7	-0,024
519,2	-0,024
519,6	-0,024
520,1	-0,024
520,5	-0,024
521	-0,023
521,4	-0,023
521,9	-0,024
522,3	-0,024
522,8	-0,024
523,2	-0,024
523,7	-0,023
524,1	-0,024
524,6	-0,023
525	-0,023
525,5	-0,023
525,9	-0,023
526,4	-0,023
526,8	-0,023
527,3	-0,023
527,7	-0,023
528,2	-0,024
528,6	-0,024
529,1	-0,024
529,5	-0,024
530	-0,024
530,4	-0,025
530,9	-0,025
531,3	-0,025
531,8	-0,025
532,2	-0,025
532,6	-0,025
533,1	-0,025
533,5	-0,024
534	-0,024
534,4	-0,024
534,9	-0,024
535,3	-0,024
535,8	-0,024
536,2	-0,024
536,7	-0,024
537,1	-0,023
537,6	-0,023
538	-0,024
538,5	-0,024
538,9	-0,024
539,4	-0,024
539,8	-0,024
540,3	-0,024
540,7	-0,024
541,2	-0,024
541,6	-0,024
542,1	-0,024
542,5	-0,024
543	-0,024
543,4	-0,023
543,9	-0,023
544,3	-0,022
544,8	-0,022
545,2	-0,022
545,7	-0,022
546,1	-0,022
546,5	-0,023
547	-0,022
547,4	-0,023
547,9	-0,023
548,3	-0,024
548,8	-0,024
549,2	-0,024
549,7	-0,023
550,1	-0,023
550,6	-0,023
551	-0,023
551,5	-0,023
551,9	-0,023
552,4	-0,023
552,8	-0,022
553,3	-0,022
553,7	-0,023
554,2	-0,023
554,6	-0,022
555,1	-0,022
555,5	-0,022
555,9	-0,022
556,4	-0,022
556,8	-0,022
557,3	-0,021
557,7	-0,022
558,2	-0,022
558,6	-0,022
559,1	-0,023
559,5	-0,023
560	-0,023
560,4	-0,023
560,9	-0,023
561,3	-0,023
561,8	-0,023
562,2	-0,022
562,7	-0,022
563,1	-0,022
563,6	-0,022
564	-0,023
564,4	-0,023
564,9	-0,023
565,3	-0,023
565,8	-0,023
566,2	-0,023
566,7	-0,023
567,1	-0,022
567,6	-0,023
568	-0,023
568,5	-0,023
568,9	-0,024
569,4	-0,024
569,8	-0,024
570,3	-0,024
570,7	-0,025
571,1	-0,024
571,6	-0,024
572	-0,024
572,5	-0,024
572,9	-0,024
573,4	-0,024
573,8	-0,024
574,3	-0,024
574,7	-0,024
575,2	-0,024
575,6	-0,024
576,1	-0,024
576,5	-0,025
576,9	-0,025
577,4	-0,025
577,8	-0,025
578,3	-0,024
578,7	-0,024
579,2	-0,024
579,6	-0,023
580,1	-0,024
580,5	-0,024
581	-0,024
581,4	-0,024
581,9	-0,024
582,3	-0,024
582,7	-0,024
583,2	-0,023
583,6	-0,023
584,1	-0,023
584,5	-0,023
585	-0,023
585,4	-0,023
585,9	-0,024
586,3	-0,024
586,8	-0,024
587,2	-0,024
587,6	-0,023
588,1	-0,023
588,5	-0,024
589	-0,023
589,4	-0,023
589,9	-0,022
590,3	-0,022
590,8	-0,022
591,2	-0,022
591,7	-0,023
592,1	-0,023
592,5	-0,023
593	-0,023
593,4	-0,024
593,9	-0,024
594,3	-0,024
594,8	-0,023
595,2	-0,023
595,7	-0,023
596,1	-0,024
596,6	-0,023
597	-0,023
597,4	-0,023
597,9	-0,024
598,3	-0,024
598,8	-0,024
599,2	-0,023
599,7	-0,024
600,1	-0,024
600,6	-0,023
601	-0,023
601,4	-0,023
601,9	-0,023
602,3	-0,024
602,8	-0,023
603,2	-0,023
603,7	-0,023
604,1	-0,023
604,6	-0,023
605	-0,023
605,4	-0,023
605,9	-0,023
606,3	-0,023
606,8	-0,023
607,2	-0,023
607,7	-0,023
608,1	-0,023
608,6	-0,023
609	-0,023
609,4	-0,023
609,9	-0,023
610,3	-0,023
610,8	-0,023
611,2	-0,023
611,7	-0,023
612,1	-0,024
612,6	-0,024
613	-0,024
613,4	-0,024
613,9	-0,024
614,3	-0,024
614,8	-0,024
615,2	-0,023
615,7	-0,023
616,1	-0,023
616,6	-0,023
617	-0,023
617,4	-0,022
617,9	-0,022
618,3	-0,022
618,8	-0,022
619,2	-0,022
619,7	-0,022
620,1	-0,022
620,5	-0,022
621	-0,022
621,4	-0,022
621,9	-0,022
622,3	-0,022
622,8	-0,023
623,2	-0,023
623,6	-0,023
624,1	-0,023
624,5	-0,023
625	-0,023
625,4	-0,022
625,9	-0,022
626,3	-0,021
626,8	-0,021
627,2	-0,021
627,6	-0,02
628,1	-0,021
628,5	-0,021
629	-0,02
629,4	-0,02
629,9	-0,02
630,3	-0,021
630,7	-0,021
631,2	-0,021
631,6	-0,021
632,1	-0,021
632,5	-0,021
633	-0,021
633,4	-0,021
633,8	-0,021
634,3	-0,021
634,7	-0,021
635,2	-0,021
635,6	-0,021
636,1	-0,021
636,5	-0,021
636,9	-0,021
637,4	-0,021
637,8	-0,021
638,3	-0,021
638,7	-0,021
639,2	-0,021
639,6	-0,021
640	-0,021
640,5	-0,021
640,9	-0,021
641,4	-0,021
641,8	-0,022
642,2	-0,022
642,7	-0,023
643,1	-0,023
643,6	-0,022
644	-0,022
644,5	-0,022
644,9	-0,021
645,3	-0,021
645,8	-0,02
646,2	-0,02
646,7	-0,02
647,1	-0,02
647,6	-0,02
648	-0,021
648,4	-0,021
648,9	-0,021
649,3	-0,021
649,8	-0,021
650,2	-0,021
650,6	-0,021
651,1	-0,021
651,5	-0,021
652	-0,021
652,4	-0,021
652,9	-0,021
653,3	-0,018
653,7	-0,014
654,2	-0,009
654,6	-0,006
655,1	-0,004
655,5	-0,005
655,9	-0,005
656,4	-0,006
656,8	-0,006
657,3	-0,008
657,7	-0,011
658,2	-0,017
658,6	-0,017
659	-0,018
659,5	-0,019
659,9	-0,02
660,4	-0,02
660,8	-0,02
661,2	-0,02
661,7	-0,02
662,1	-0,02
662,6	-0,02
663	-0,02
663,4	-0,02
663,9	-0,02
664,3	-0,02
664,8	-0,02
665,2	-0,02
665,6	-0,02
666,1	-0,02
666,5	-0,02
667	-0,02
667,4	-0,02
667,9	-0,02
668,3	-0,02
668,7	-0,02
669,2	-0,02
669,6	-0,02
670,1	-0,02
670,5	-0,021
670,9	-0,021
671,4	-0,021
671,8	-0,021
672,3	-0,021
672,7	-0,021
673,1	-0,021
673,6	-0,021
674	-0,021
674,5	-0,02
674,9	-0,02
675,3	-0,02
675,8	-0,02
676,2	-0,02
676,7	-0,02
677,1	-0,02
677,5	-0,021
678	-0,021
678,4	-0,021
678,9	-0,022
679,3	-0,022
679,7	-0,022
680,2	-0,021
680,6	-0,021
681,1	-0,02
681,5	-0,02
681,9	-0,02
682,4	-0,02
682,8	-0,02
683,3	-0,021
683,7	-0,021
684,1	-0,022
684,6	-0,022
685	-0,021
685,5	-0,021
685,9	-0,021
686,3	-0,021
686,8	-0,021
687,2	-0,021
687,7	-0,02
688,1	-0,021
688,5	-0,021
689	-0,02
689,4	-0,021
689,9	-0,021
690,3	-0,021
690,7	-0,021
691,2	-0,021
691,6	-0,021
692	-0,021
692,5	-0,021
692,9	-0,02
693,4	-0,02
693,8	-0,02
694,2	-0,02
694,7	-0,02
695,1	-0,02
695,6	-0,02
696	-0,02
696,4	-0,021
696,9	-0,021
697,3	-0,021
697,8	-0,021
698,2	-0,021
698,6	-0,021
699,1	-0,021
699,5	-0,02
699,9	-0,02
700,4	-0,02
700,8	-0,02
701,3	-0,02
701,7	-0,02
702,1	-0,02
702,6	-0,02
703	-0,02
703,5	-0,02
703,9	-0,02
704,3	-0,02
704,8	-0,02
705,2	-0,02
705,6	-0,02
706,1	-0,021
706,5	-0,021
707	-0,021
707,4	-0,021
707,8	-0,022
708,3	-0,022
708,7	-0,022
709,2	-0,022
709,6	-0,021
710	-0,021
710,5	-0,021
710,9	-0,021
711,3	-0,021
711,8	-0,021
712,2	-0,021
712,7	-0,021
713,1	-0,021
713,5	-0,021
714	-0,022
714,4	-0,022
714,8	-0,021
715,3	-0,021
715,7	-0,02
716,2	-0,02
716,6	-0,02
717	-0,02
717,5	-0,02
717,9	-0,02
718,3	-0,021
718,8	-0,021
719,2	-0,021
719,7	-0,022
720,1	-0,021
720,5	-0,021
721	-0,021
721,4	-0,021
721,8	-0,021
722,3	-0,021
722,7	-0,02
723,2	-0,02
723,6	-0,021
724	-0,02
724,5	-0,02
724,9	-0,02
725,3	-0,02
725,8	-0,02
726,2	-0,02
726,7	-0,02
727,1	-0,02
727,5	-0,021
728	-0,021
728,4	-0,021
728,8	-0,021
729,3	-0,021
729,7	-0,021
730,1	-0,021
730,6	-0,021
731	-0,021
731,5	-0,021
731,9	-0,021
732,3	-0,021
732,8	-0,021
733,2	-0,021
733,6	-0,021
734,1	-0,021
734,5	-0,021
734,9	-0,021
735,4	-0,021
735,8	-0,021
736,3	-0,021
736,7	-0,021
737,1	-0,02
737,6	-0,02
738	-0,02
738,4	-0,02
738,9	-0,02
739,3	-0,02
739,7	-0,021
740,2	-0,02
740,6	-0,021
741,1	-0,021
741,5	-0,02
741,9	-0,02
742,4	-0,02
742,8	-0,02
743,2	-0,02
743,7	-0,02
744,1	-0,02
744,5	-0,02
745	-0,02
745,4	-0,02
745,8	-0,02
746,3	-0,021
746,7	-0,021
747,2	-0,02
747,6	-0,02
748	-0,02
748,5	-0,021
748,9	-0,021
749,3	-0,021
749,8	-0,021
750,2	-0,021
750,6	-0,021
751,1	-0,021
751,5	-0,021
751,9	-0,021
752,4	-0,021
752,8	-0,021
753,3	-0,021
753,7	-0,021
754,1	-0,021
754,6	-0,021
755	-0,021
755,4	-0,021
755,9	-0,021
756,3	-0,021
756,7	-0,021
757,2	-0,021
757,6	-0,021
758	-0,021
758,5	-0,021
758,9	-0,021
759,3	-0,021
759,8	-0,021
760,2	-0,021
760,6	-0,021
761,1	-0,021
761,5	-0,021
761,9	-0,021
762,4	-0,021
762,8	-0,021
763,3	-0,021
763,7	-0,021
764,1	-0,021
764,6	-0,021
765	-0,021
765,4	-0,021
765,9	-0,02
766,3	-0,02
766,7	-0,02
767,2	-0,019
767,6	-0,019
768	-0,019
768,5	-0,02
768,9	-0,02
769,3	-0,02
769,8	-0,02
770,2	-0,02
770,6	-0,019
771,1	-0,019
771,5	-0,019
771,9	-0,02
772,4	-0,02
772,8	-0,02
773,2	-0,02
773,7	-0,02
774,1	-0,02
774,5	-0,02
775	-0,02
775,4	-0,02
775,8	-0,02
776,3	-0,02
776,7	-0,02
777,1	-0,02
777,6	-0,02
778	-0,02
778,4	-0,02
778,9	-0,02
779,3	-0,02
779,7	-0,02
780,2	-0,021
780,6	-0,021
781	-0,021
781,5	-0,02
781,9	-0,02
782,3	-0,02
782,8	-0,02
783,2	-0,02
783,6	-0,019
784,1	-0,019
784,5	-0,019
784,9	-0,019
785,4	-0,019
785,8	-0,02
786,2	-0,02
786,7	-0,02
787,1	-0,021
787,5	-0,021
788	-0,021
788,4	-0,021
788,8	-0,021
789,3	-0,021
789,7	-0,021
790,1	-0,021
790,6	-0,021
791	-0,021
791,4	-0,021
791,9	-0,02
792,3	-0,02
792,7	-0,02
793,2	-0,02
793,6	-0,02
794	-0,02
794,5	-0,02
794,9	-0,02
795,3	-0,02
795,8	-0,02
796,2	-0,02
796,6	-0,02
797,1	-0,02
797,5	-0,02
797,9	-0,019
798,4	-0,02
798,8	-0,02
799,2	-0,02
799,7	-0,02
800,1	-0,02
800,5	-0,02
801	-0,02
801,4	-0,019
801,8	-0,02
802,2	-0,019
802,7	-0,019
803,1	-0,019
803,5	-0,019
804	-0,019
804,4	-0,019
804,8	-0,019
805,3	-0,019
805,7	-0,019
806,1	-0,019
806,6	-0,019
807	-0,019
807,4	-0,02
807,9	-0,02
808,3	-0,02
808,7	-0,02
809,2	-0,02
809,6	-0,02
810	-0,02
810,4	-0,02
810,9	-0,02
811,3	-0,019
811,7	-0,019
812,2	-0,019
812,6	-0,019
813	-0,019
813,5	-0,019
813,9	-0,019
814,3	-0,019
814,8	-0,019
815,2	-0,019
815,6	-0,019
816,1	-0,019
816,5	-0,019
816,9	-0,019
817,3	-0,019
817,8	-0,019
818,2	-0,019
818,6	-0,019
819,1	-0,019
819,5	-0,019
819,9	-0,019
820,4	-0,019
820,8	-0,019
821,2	-0,019
821,7	-0,019
822,1	-0,019
822,5	-0,019
822,9	-0,019
823,4	-0,02
823,8	-0,02
824,2	-0,02
824,7	-0,02
825,1	-0,021
825,5	-0,021
826	-0,021
826,4	-0,021
826,8	-0,021
827,3	-0,021
827,7	-0,02
828,1	-0,02
828,5	-0,019
829	-0,019
829,4	-0,019
829,8	-0,019
830,3	-0,019
830,7	-0,019
831,1	-0,019
831,6	-0,02
832	-0,02
832,4	-0,02
832,8	-0,02
833,3	-0,02
833,7	-0,02
834,1	-0,02
834,6	-0,02
835	-0,02
835,4	-0,02
835,8	-0,02
836,3	-0,02
836,7	-0,021
837,1	-0,02
837,6	-0,02
838	-0,02
838,4	-0,02
838,9	-0,02
839,3	-0,019
839,7	-0,019
840,1	-0,019
840,6	-0,02
841	-0,02
841,4	-0,02
841,9	-0,02
842,3	-0,02
842,7	-0,02
843,1	-0,02
843,6	-0,019
844	-0,019
844,4	-0,019
844,9	-0,019
845,3	-0,018
845,7	-0,018
846,2	-0,018
846,6	-0,018
847	-0,018
847,4	-0,018
847,9	-0,018
848,3	-0,018
848,7	-0,019
849,2	-0,019
849,6	-0,019
850	-0,019
850,4	-0,019
850,9	-0,02
851,3	-0,02
851,7	-0,02
852,2	-0,02
852,6	-0,02
853	-0,02
853,4	-0,02
853,9	-0,02
854,3	-0,02
854,7	-0,02
855,2	-0,02
855,6	-0,02
856	-0,02
856,4	-0,02
856,9	-0,019
857,3	-0,019
857,7	-0,019
858,2	-0,019
858,6	-0,019
859	-0,019
859,4	-0,019
859,9	-0,019
860,3	-0,019
860,7	-0,019
861,1	-0,019
861,6	-0,019
862	-0,02
862,4	-0,02
862,9	-0,02
863,3	-0,02
863,7	-0,02
864,1	-0,02
864,6	-0,02
865	-0,02
865,4	-0,02
865,9	-0,02
866,3	-0,02
866,7	-0,02
867,1	-0,019
867,6	-0,019
868	-0,019
868,4	-0,019
868,8	-0,019
869,3	-0,019
869,7	-0,019
870,1	-0,019
870,6	-0,018
871	-0,018
871,4	-0,018
871,8	-0,018
872,3	-0,018
872,7	-0,019
873,1	-0,019
873,5	-0,019
874	-0,019
874,4	-0,02
874,8	-0,019
875,3	-0,019
875,7	-0,02
876,1	-0,02
876,5	-0,02
877	-0,019
877,4	-0,019
877,8	-0,019
878,2	-0,019
878,7	-0,019
879,1	-0,019
879,5	-0,018
879,9	-0,018
880,4	-0,018
880,8	-0,019
881,2	-0,019
881,7	-0,019
882,1	-0,018
882,5	-0,019
882,9	-0,019
883,4	-0,019
883,8	-0,018
884,2	-0,018
884,6	-0,019
885,1	-0,019
885,5	-0,019
885,9	-0,019
886,3	-0,019
886,8	-0,02
887,2	-0,02
887,6	-0,02
888	-0,019
888,5	-0,019
888,9	-0,019
889,3	-0,019
889,8	-0,019
890,2	-0,019
890,6	-0,019
891	-0,019
891,5	-0,019
891,9	-0,019
892,3	-0,02
892,7	-0,019
893,2	-0,019
893,6	-0,019
894	-0,019
894,4	-0,019
894,9	-0,02
895,3	-0,02
895,7	-0,02
896,1	-0,02
896,6	-0,02
897	-0,02
897,4	-0,02
897,8	-0,019
898,3	-0,02
898,7	-0,019
899,1	-0,019
899,5	-0,019
900	-0,019
900,4	-0,019
900,8	-0,019
901,2	-0,019
901,7	-0,019
902,1	-0,019
902,5	-0,019
902,9	-0,02
903,4	-0,02
903,8	-0,02
904,2	-0,02
904,6	-0,02
905,1	-0,02
905,5	-0,02
905,9	-0,02
906,3	-0,02
906,8	-0,02
907,2	-0,02
907,6	-0,019
908	-0,019
908,5	-0,019
908,9	-0,019
909,3	-0,019
909,7	-0,019
910,2	-0,019
910,6	-0,019
911	-0,019
911,4	-0,019
911,9	-0,019
912,3	-0,019
912,7	-0,019
913,1	-0,019
913,6	-0,019
914	-0,02
914,4	-0,02
914,8	-0,02
915,3	-0,02
915,7	-0,02
916,1	-0,02
916,5	-0,02
916,9	-0,02
917,4	-0,019
917,8	-0,02
918,2	-0,02
918,6	-0,019
919,1	-0,019
919,5	-0,019
919,9	-0,019
920,3	-0,019
920,8	-0,019
921,2	-0,019
921,6	-0,02
922	-0,02
922,5	-0,02
922,9	-0,02
923,3	-0,02
923,7	-0,02
924,2	-0,02
924,6	-0,02
925	-0,019
925,4	-0,02
925,8	-0,02
926,3	-0,019
926,7	-0,019
927,1	-0,019
927,5	-0,019
928	-0,019
928,4	-0,019
928,8	-0,019
929,2	-0,018
929,7	-0,018
930,1	-0,018
930,5	-0,018
930,9	-0,018
931,3	-0,019
931,8	-0,019
932,2	-0,02
932,6	-0,02
933	-0,02
933,5	-0,021
933,9	-0,021
934,3	-0,02
934,7	-0,021
935,2	-0,02
935,6	-0,02
936	-0,02
936,4	-0,02
936,8	-0,02
937,3	-0,02
937,7	-0,019
938,1	-0,02
938,5	-0,02
939	-0,02
939,4	-0,02
939,8	-0,02
940,2	-0,02
940,6	-0,02
941,1	-0,02
941,5	-0,02
941,9	-0,02
942,3	-0,02
942,8	-0,02
943,2	-0,02
943,6	-0,021
944	-0,021
944,4	-0,021
944,9	-0,021
945,3	-0,021
945,7	-0,021
946,1	-0,02
946,6	-0,021
947	-0,02
947,4	-0,021
947,8	-0,021
948,2	-0,02
948,7	-0,021
949,1	-0,021
949,5	-0,02
949,9	-0,021
950,3	-0,02
950,8	-0,02
951,2	-0,02
951,6	-0,02
952	-0,02
952,5	-0,021
952,9	-0,02
953,3	-0,02
953,7	-0,02
954,1	-0,02
954,6	-0,02
955	-0,02
955,4	-0,02
955,8	-0,02
956,2	-0,02
956,7	-0,019
957,1	-0,02
957,5	-0,02
957,9	-0,02
958,3	-0,02
958,8	-0,02
959,2	-0,02
959,6	-0,021
960	-0,021
960,5	-0,021
960,9	-0,02
961,3	-0,021
961,7	-0,02
962,1	-0,02
962,6	-0,021
963	-0,02
963,4	-0,02
963,8	-0,021
964,2	-0,021
964,7	-0,021
965,1	-0,021
965,5	-0,02
965,9	-0,02
966,3	-0,02
966,8	-0,02
967,2	-0,02
967,6	-0,02
968	-0,02
968,4	-0,02
968,9	-0,02
969,3	-0,021
969,7	-0,02
970,1	-0,02
970,5	-0,019
971	-0,019
971,4	-0,019
971,8	-0,019
972,2	-0,019
972,6	-0,019
973,1	-0,019
973,5	-0,02
973,9	-0,02
974,3	-0,02
974,7	-0,02
975,2	-0,02
975,6	-0,02
976	-0,02
976,4	-0,02
976,8	-0,02
977,3	-0,02
977,7	-0,021
978,1	-0,02
978,5	-0,02
978,9	-0,02
979,4	-0,02
979,8	-0,019
980,2	-0,019
980,6	-0,019
981	-0,02
981,5	-0,02
981,9	-0,019
982,3	-0,019
982,7	-0,019
983,1	-0,02
983,6	-0,02
984	-0,019
984,4	-0,019
984,8	-0,02
985,2	-0,02
985,6	-0,02
986,1	-0,019
986,5	-0,019
986,9	-0,019
987,3	-0,019
987,7	-0,019
988,2	-0,02
988,6	-0,019
989	-0,02
989,4	-0,019
989,8	-0,02
990,3	-0,02
990,7	-0,02
991,1	-0,019
991,5	-0,019
991,9	-0,019
992,3	-0,019
992,8	-0,019
993,2	-0,019
993,6	-0,019
994	-0,018
994,4	-0,018
994,9	-0,018
995,3	-0,018
995,7	-0,018
996,1	-0,018
996,5	-0,019
996,9	-0,019
997,4	-0,02
997,8	-0,02
998,2	-0,02
998,6	-0,019
999	-0,02
999,5	-0,019
999,9	-0,02
1000,3	-0,019
1000,7	-0,019
1001,1	-0,019
1001,5	-0,02
1002	-0,02
1002,4	-0,019
1002,8	-0,02
1003,2	-0,02
1003,6	-0,02
1004	-0,02
1004,5	-0,02
1004,9	-0,02
1005,3	-0,02
1005,7	-0,02
1006,1	-0,02
1006,6	-0,02
1007	-0,02
1007,4	-0,02
1007,8	-0,02
1008,2	-0,02
1008,6	-0,02
1009,1	-0,02
1009,5	-0,019
1009,9	-0,019
1010,3	-0,019
1010,7	-0,019
1011,1	-0,019
1011,6	-0,019
1012	-0,019
1012,4	-0,019
1012,8	-0,019
1013,2	-0,019
1013,6	-0,018
1014,1	-0,019
1014,5	-0,019
1014,9	-0,019
1015,3	-0,019
1015,7	-0,019
1016,1	-0,02
1016,6	-0,02
1017	-0,02
1017,4	-0,02
1017,8	-0,019
1018,2	-0,019
1018,6	-0,019
1019,1	-0,019
1019,5	-0,019
1019,9	-0,019
1020,3	-0,018
1020,7	-0,019
1021,1	-0,019
1021,6	-0,019
1022	-0,018
1022,4	-0,018
1022,8	-0,018
1023,2	-0,018
1023,6	-0,017
1024,1	-0,017
1024,5	-0,017
1024,9	-0,018
1025,3	-0,017
1025,7	-0,017
1026,1	-0,018
1026,6	-0,018
1027	-0,019
1027,4	-0,019
1027,8	-0,019
1028,2	-0,019
1028,6	-0,019
1029	-0,018
1029,5	-0,018
1029,9	-0,018
1030,3	-0,017
1030,7	-0,016
1031,1	-0,017
1031,5	-0,016
1032	-0,016
1032,4	-0,016
1032,8	-0,017
1033,2	-0,017
1033,6	-0,017
1034	-0,018
1034,4	-0,018
1034,9	-0,018
1035,3	-0,019
1035,7	-0,019
1036,1	-0,019
1036,5	-0,019
1036,9	-0,019
1037,4	-0,019
1037,8	-0,019
1038,2	-0,02
1038,6	-0,019
1039	-0,019
1039,4	-0,018
1039,8	-0,018
1040,3	-0,018
1040,7	-0,018
1041,1	-0,017
1041,5	-0,017
1041,9	-0,018
1042,3	-0,018
1042,7	-0,019
1043,2	-0,019
1043,6	-0,018
1044	-0,018
1044,4	-0,018
1044,8	-0,017
1045,2	-0,017
1045,6	-0,016
1046,1	-0,016
1046,5	-0,016
1046,9	-0,017
1047,3	-0,017
1047,7	-0,018
1048,1	-0,018
1048,5	-0,018
1049	-0,018
1049,4	-0,019
1049,8	-0,019
1050,2	-0,018
1050,6	-0,017
1051	-0,017
1051,4	-0,017
1051,9	-0,018
1052,3	-0,017
1052,7	-0,017
1053,1	-0,016
1053,5	-0,016
1053,9	-0,016
1054,3	-0,015
1054,8	-0,016
1055,2	-0,017
1055,6	-0,017
1056	-0,017
1056,4	-0,018
1056,8	-0,019
1057,2	-0,02
1057,6	-0,019
1058,1	-0,019
1058,5	-0,019
1058,9	-0,019
1059,3	-0,019
1059,7	-0,019
1060,1	-0,019
1060,5	-0,019
1061	-0,019
1061,4	-0,019
1061,8	-0,02
1062,2	-0,019
1062,6	-0,02
1063	-0,02
1063,4	-0,02
1063,8	-0,02
1064,3	-0,021
1064,7	-0,02
1065,1	-0,02
1065,5	-0,02
1065,9	-0,018
1066,3	-0,018
1066,7	-0,018
1067,1	-0,017
1067,6	-0,017
1068	-0,016
1068,4	-0,016
1068,8	-0,016
1069,2	-0,016
1069,6	-0,016
1070	-0,017
1070,4	-0,018
1070,9	-0,018
1071,3	-0,018
1071,7	-0,018
1072,1	-0,019
1072,5	-0,019
1072,9	-0,019
1073,3	-0,018
1073,7	-0,018
1074,2	-0,019
1074,6	-0,018
1075	-0,018
1075,4	-0,018
1075,8	-0,018
1076,2	-0,018
1076,6	-0,018
1077	-0,017
1077,5	-0,017
1077,9	-0,017
1078,3	-0,018
1078,7	-0,017
1079,1	-0,018
1079,5	-0,018
1079,9	-0,02
1080,3	-0,02
1080,7	-0,019
1081,2	-0,019
1081,6	-0,019
1082	-0,019
1082,4	-0,019
1082,8	-0,018
1083,2	-0,017
1083,6	-0,018
1084	-0,019
1084,5	-0,018
1084,9	-0,019
1085,3	-0,017
1085,7	-0,017
1086,1	-0,016
1086,5	-0,015
1086,9	-0,015
1087,3	-0,018
1087,7	-0,015
1088,2	-0,017
1088,6	-0,018
1089	-0,02
1089,4	-0,023
1089,8	-0,023
1090,2	-0,019
1090,6	-0,019
1091	-0,017
1091,4	-0,019
1091,9	-0,019
1092,3	-0,018
1092,7	-0,014
1093,1	-0,019
1093,5	-0,022
1093,9	-0,023
1094,3	-0,023
1094,7	-0,022
1095,1	-0,023
1095,5	-0,022
1096	-0,017
1096,4	-0,017
1096,8	-0,022
1097,2	-0,017
1097,6	-0,019
1098	-0,02
1098,4	-0,023
1098,8	-0,023
1099,2	-0,028
1099,6	-0,024
1100,1	-0,026
1100,5	-0,022
1100,9	-0,01
1101,3	-0,007
1101,7	-0,003
1102,1	0
1102,5	0,003
1102,9	0
1103,3	-0,001
1103,7	-0,013
1104,2	-0,018
1104,6	-0,023
1105	-0,029
1105,4	-0,027
1105,8	-0,025
1106,2	-0,031
1106,6	-0,041
1107	-0,048
1107,4	-0,064
1107,8	-0,031
1108,3	-0
