Data from Absorbance_204.txt Node
Date: Fri Nov 13 21:02:40 MSK 2020
User: vat
Spectrometer: MAYP114033
Trigger mode: 0
Integration Time (sec): 8,000000E-3
Scans to average: 10
Electric dark correction enabled: true
Nonlinearity correction enabled: false
Boxcar width: 3
XAxis mode: Wavelengths
Number of Pixels in Spectrum: 2068
>>>>>Begin Spectral Data<<<<<
199,4	-0,477
199,9	-0
200,4	0,43
200,8	0,183
201,3	0,096
201,8	0,108
202,2	0,098
202,7	0,097
203,2	0,068
203,6	0,056
204,1	0,068
204,6	0,078
205	0,059
205,5	0,07
206	0,072
206,4	0,088
206,9	0,087
207,4	0,094
207,8	0,088
208,3	0,095
208,8	0,099
209,2	0,095
209,7	0,08
210,2	0,085
210,6	0,075
211,1	0,077
211,5	0,069
212	0,057
212,5	0,075
212,9	0,081
213,4	0,083
213,9	0,083
214,3	0,084
214,8	0,089
215,3	0,087
215,7	0,062
216,2	0,056
216,7	0,058
217,1	0,073
217,6	0,09
218,1	0,097
218,5	0,096
219	0,119
219,5	0,141
219,9	0,156
220,4	0,129
220,9	0,103
221,3	0,1
221,8	0,113
222,3	0,093
222,7	0,08
223,2	0,066
223,6	0,09
224,1	0,104
224,6	0,102
225	0,099
225,5	0,112
226	0,101
226,4	0,083
226,9	0,079
227,4	0,078
227,8	0,082
228,3	0,099
228,8	0,093
229,2	0,101
229,7	0,123
230,2	0,116
230,6	0,123
231,1	0,131
231,5	0,118
232	0,121
232,5	0,136
232,9	0,135
233,4	0,141
233,9	0,135
234,3	0,127
234,8	0,123
235,3	0,135
235,7	0,137
236,2	0,138
236,7	0,134
237,1	0,146
237,6	0,146
238,1	0,162
238,5	0,151
239	0,143
239,4	0,14
239,9	0,146
240,4	0,145
240,8	0,148
241,3	0,149
241,8	0,158
242,2	0,183
242,7	0,193
243,2	0,213
243,6	0,214
244,1	0,222
244,6	0,237
245	0,25
245,5	0,242
245,9	0,257
246,4	0,251
246,9	0,267
247,3	0,285
247,8	0,278
248,3	0,284
248,7	0,297
249,2	0,315
249,7	0,33
250,1	0,327
250,6	0,325
251	0,341
251,5	0,345
252	0,348
252,4	0,345
252,9	0,345
253,4	0,353
253,8	0,358
254,3	0,362
254,8	0,367
255,2	0,376
255,7	0,386
256,1	0,397
256,6	0,404
257,1	0,416
257,5	0,427
258	0,438
258,5	0,45
258,9	0,46
259,4	0,472
259,9	0,485
260,3	0,498
260,8	0,511
261,2	0,525
261,7	0,538
262,2	0,552
262,6	0,567
263,1	0,583
263,6	0,597
264	0,61
264,5	0,627
264,9	0,643
265,4	0,659
265,9	0,675
266,3	0,69
266,8	0,704
267,3	0,721
267,7	0,736
268,2	0,751
268,7	0,766
269,1	0,783
269,6	0,799
270	0,814
270,5	0,829
271	0,845
271,4	0,861
271,9	0,876
272,4	0,888
272,8	0,902
273,3	0,918
273,7	0,932
274,2	0,945
274,7	0,957
275,1	0,971
275,6	0,981
276,1	0,992
276,5	1,002
277	1,013
277,4	1,021
277,9	1,03
278,4	1,039
278,8	1,047
279,3	1,054
279,8	1,06
280,2	1,064
280,7	1,069
281,1	1,073
281,6	1,074
282,1	1,075
282,5	1,077
283	1,076
283,4	1,076
283,9	1,073
284,4	1,07
284,8	1,067
285,3	1,062
285,8	1,056
286,2	1,049
286,7	1,041
287,1	1,032
287,6	1,022
288,1	1,01
288,5	1
289	0,985
289,5	0,972
289,9	0,958
290,4	0,942
290,8	0,926
291,3	0,909
291,8	0,891
292,2	0,874
292,7	0,856
293,1	0,837
293,6	0,816
294,1	0,797
294,5	0,776
295	0,755
295,5	0,734
295,9	0,712
296,4	0,689
296,8	0,667
297,3	0,645
297,8	0,623
298,2	0,601
298,7	0,579
299,1	0,558
299,6	0,537
300,1	0,517
300,5	0,496
301	0,476
301,5	0,456
301,9	0,437
302,4	0,418
302,8	0,399
303,3	0,381
303,8	0,364
304,2	0,347
304,7	0,331
305,1	0,315
305,6	0,299
306,1	0,285
306,5	0,271
307	0,257
307,4	0,245
307,9	0,233
308,4	0,221
308,8	0,211
309,3	0,2
309,8	0,19
310,2	0,18
310,7	0,171
311,1	0,163
311,6	0,155
312,1	0,147
312,5	0,14
313	0,134
313,4	0,127
313,9	0,121
314,4	0,115
314,8	0,11
315,3	0,104
315,7	0,1
316,2	0,096
316,7	0,092
317,1	0,088
317,6	0,085
318	0,082
318,5	0,078
319	0,075
319,4	0,073
319,9	0,071
320,3	0,068
320,8	0,066
321,3	0,064
321,7	0,062
322,2	0,061
322,6	0,06
323,1	0,058
323,6	0,057
324	0,056
324,5	0,055
324,9	0,054
325,4	0,053
325,9	0,052
326,3	0,052
326,8	0,05
327,2	0,05
327,7	0,049
328,2	0,048
328,6	0,047
329,1	0,047
329,5	0,045
330	0,045
330,5	0,045
330,9	0,044
331,4	0,044
331,8	0,044
332,3	0,043
332,8	0,043
333,2	0,043
333,7	0,042
334,1	0,042
334,6	0,042
335,1	0,041
335,5	0,041
336	0,04
336,4	0,04
336,9	0,04
337,4	0,039
337,8	0,039
338,3	0,039
338,7	0,039
339,2	0,039
339,7	0,039
340,1	0,039
340,6	0,038
341	0,038
341,5	0,037
342	0,037
342,4	0,037
342,9	0,036
343,3	0,036
343,8	0,036
344,2	0,036
344,7	0,036
345,2	0,035
345,6	0,036
346,1	0,036
346,5	0,036
347	0,035
347,5	0,035
347,9	0,036
348,4	0,035
348,8	0,036
349,3	0,035
349,8	0,035
350,2	0,035
350,7	0,034
351,1	0,035
351,6	0,035
352	0,034
352,5	0,034
353	0,034
353,4	0,034
353,9	0,033
354,3	0,033
354,8	0,033
355,3	0,032
355,7	0,032
356,2	0,032
356,6	0,032
357,1	0,032
357,5	0,032
358	0,032
358,5	0,032
358,9	0,033
359,4	0,033
359,8	0,032
360,3	0,032
360,8	0,032
361,2	0,032
361,7	0,032
362,1	0,032
362,6	0,031
363	0,031
363,5	0,031
364	0,031
364,4	0,031
364,9	0,03
365,3	0,03
365,8	0,03
366,3	0,029
366,7	0,029
367,2	0,029
367,6	0,029
368,1	0,029
368,5	0,03
369	0,029
369,5	0,03
369,9	0,029
370,4	0,029
370,8	0,029
371,3	0,028
371,7	0,027
372,2	0,027
372,7	0,027
373,1	0,027
373,6	0,027
374	0,026
374,5	0,026
374,9	0,027
375,4	0,026
375,9	0,026
376,3	0,026
376,8	0,025
377,2	0,025
377,7	0,025
378,2	0,025
378,6	0,025
379,1	0,025
379,5	0,025
380	0,025
380,4	0,025
380,9	0,025
381,4	0,024
381,8	0,024
382,3	0,024
382,7	0,024
383,2	0,024
383,6	0,024
384,1	0,024
384,6	0,024
385	0,024
385,5	0,024
385,9	0,024
386,4	0,024
386,8	0,023
387,3	0,023
387,7	0,022
388,2	0,022
388,7	0,022
389,1	0,022
389,6	0,022
390	0,022
390,5	0,021
390,9	0,021
391,4	0,022
391,9	0,021
392,3	0,021
392,8	0,021
393,2	0,021
393,7	0,02
394,1	0,02
394,6	0,02
395,1	0,02
395,5	0,02
396	0,02
396,4	0,02
396,9	0,021
397,3	0,021
397,8	0,021
398,2	0,021
398,7	0,021
399,2	0,021
399,6	0,021
400,1	0,02
400,5	0,02
401	0,02
401,4	0,02
401,9	0,02
402,4	0,02
402,8	0,019
403,3	0,019
403,7	0,019
404,2	0,019
404,6	0,019
405,1	0,019
405,5	0,019
406	0,019
406,5	0,019
406,9	0,019
407,4	0,019
407,8	0,018
408,3	0,018
408,7	0,018
409,2	0,017
409,6	0,018
410,1	0,017
410,6	0,017
411	0,018
411,5	0,018
411,9	0,018
412,4	0,018
412,8	0,018
413,3	0,018
413,7	0,018
414,2	0,017
414,7	0,017
415,1	0,017
415,6	0,017
416	0,017
416,5	0,017
416,9	0,017
417,4	0,017
417,8	0,016
418,3	0,018
418,8	0,017
419,2	0,017
419,7	0,017
420,1	0,017
420,6	0,017
421	0,017
421,5	0,016
421,9	0,016
422,4	0,016
422,8	0,016
423,3	0,016
423,8	0,016
424,2	0,017
424,7	0,016
425,1	0,016
425,6	0,016
426	0,016
426,5	0,016
426,9	0,016
427,4	0,016
427,9	0,017
428,3	0,017
428,8	0,016
429,2	0,016
429,7	0,015
430,1	0,015
430,6	0,015
431	0,014
431,5	0,014
431,9	0,014
432,4	0,014
432,8	0,014
433,3	0,014
433,8	0,014
434,2	0,014
434,7	0,014
435,1	0,014
435,6	0,014
436	0,014
436,5	0,014
436,9	0,015
437,4	0,015
437,8	0,015
438,3	0,014
438,8	0,014
439,2	0,014
439,7	0,013
440,1	0,013
440,6	0,013
441	0,013
441,5	0,013
441,9	0,013
442,4	0,012
442,8	0,013
443,3	0,013
443,7	0,013
444,2	0,014
444,7	0,014
445,1	0,014
445,6	0,015
446	0,014
446,5	0,015
446,9	0,014
447,4	0,014
447,8	0,014
448,3	0,013
448,7	0,013
449,2	0,013
449,6	0,013
450,1	0,013
450,6	0,013
451	0,013
451,5	0,013
451,9	0,013
452,4	0,013
452,8	0,013
453,3	0,013
453,7	0,013
454,2	0,013
454,6	0,012
455,1	0,012
455,5	0,012
456	0,012
456,4	0,011
456,9	0,011
457,3	0,012
457,8	0,012
458,3	0,012
458,7	0,012
459,2	0,012
459,6	0,012
460,1	0,011
460,5	0,011
461	0,011
461,4	0,012
461,9	0,012
462,3	0,012
462,8	0,012
463,2	0,012
463,7	0,012
464,1	0,012
464,6	0,012
465	0,012
465,5	0,012
466	0,011
466,4	0,011
466,9	0,01
467,3	0,01
467,8	0,01
468,2	0,01
468,7	0,01
469,1	0,011
469,6	0,011
470	0,011
470,5	0,011
470,9	0,011
471,4	0,011
471,8	0,011
472,3	0,011
472,7	0,012
473,2	0,011
473,6	0,012
474,1	0,012
474,5	0,012
475	0,012
475,4	0,011
475,9	0,011
476,4	0,011
476,8	0,01
477,3	0,011
477,7	0,011
478,2	0,011
478,6	0,011
479,1	0,011
479,5	0,011
480	0,011
480,4	0,011
480,9	0,01
481,3	0,01
481,8	0,01
482,2	0,01
482,7	0,011
483,1	0,011
483,6	0,011
484	0,012
484,5	0,012
484,9	0,011
485,4	0,01
485,8	0,01
486,3	0,01
486,7	0,009
487,2	0,009
487,6	0,008
488,1	0,009
488,5	0,01
489	0,01
489,4	0,01
489,9	0,01
490,4	0,01
490,8	0,01
491,3	0,01
491,7	0,01
492,2	0,009
492,6	0,009
493,1	0,009
493,5	0,009
494	0,009
494,4	0,009
494,9	0,009
495,3	0,009
495,8	0,01
496,2	0,009
496,7	0,009
497,1	0,009
497,6	0,009
498	0,009
498,5	0,008
498,9	0,008
499,4	0,008
499,8	0,009
500,3	0,009
500,7	0,009
501,2	0,009
501,6	0,009
502,1	0,009
502,5	0,01
503	0,01
503,4	0,009
503,9	0,01
504,3	0,009
504,8	0,009
505,2	0,009
505,7	0,008
506,1	0,008
506,6	0,009
507	0,008
507,5	0,009
507,9	0,009
508,4	0,009
508,8	0,009
509,3	0,009
509,7	0,009
510,2	0,009
510,6	0,009
511,1	0,009
511,5	0,009
512	0,009
512,4	0,009
512,9	0,008
513,3	0,009
513,8	0,009
514,2	0,009
514,7	0,009
515,1	0,009
515,6	0,009
516	0,008
516,5	0,008
516,9	0,008
517,4	0,008
517,8	0,009
518,3	0,009
518,7	0,009
519,2	0,009
519,6	0,009
520,1	0,009
520,5	0,008
521	0,008
521,4	0,008
521,9	0,008
522,3	0,008
522,8	0,008
523,2	0,008
523,7	0,009
524,1	0,009
524,6	0,009
525	0,009
525,5	0,009
525,9	0,008
526,4	0,008
526,8	0,008
527,3	0,008
527,7	0,008
528,2	0,008
528,6	0,008
529,1	0,009
529,5	0,009
530	0,009
530,4	0,009
530,9	0,008
531,3	0,008
531,8	0,007
532,2	0,007
532,6	0,007
533,1	0,007
533,5	0,006
534	0,007
534,4	0,007
534,9	0,007
535,3	0,007
535,8	0,007
536,2	0,007
536,7	0,007
537,1	0,007
537,6	0,006
538	0,006
538,5	0,006
538,9	0,006
539,4	0,006
539,8	0,006
540,3	0,006
540,7	0,006
541,2	0,007
541,6	0,007
542,1	0,006
542,5	0,006
543	0,006
543,4	0,006
543,9	0,006
544,3	0,005
544,8	0,005
545,2	0,005
545,7	0,006
546,1	0,005
546,5	0,006
547	0,006
547,4	0,006
547,9	0,006
548,3	0,006
548,8	0,006
549,2	0,007
549,7	0,006
550,1	0,006
550,6	0,006
551	0,006
551,5	0,006
551,9	0,006
552,4	0,005
552,8	0,005
553,3	0,005
553,7	0,005
554,2	0,005
554,6	0,005
555,1	0,004
555,5	0,005
555,9	0,004
556,4	0,005
556,8	0,004
557,3	0,004
557,7	0,004
558,2	0,005
558,6	0,005
559,1	0,005
559,5	0,005
560	0,005
560,4	0,005
560,9	0,005
561,3	0,005
561,8	0,005
562,2	0,005
562,7	0,004
563,1	0,004
563,6	0,004
564	0,004
564,4	0,004
564,9	0,005
565,3	0,005
565,8	0,004
566,2	0,004
566,7	0,005
567,1	0,005
567,6	0,005
568	0,005
568,5	0,005
568,9	0,005
569,4	0,005
569,8	0,005
570,3	0,004
570,7	0,004
571,1	0,004
571,6	0,004
572	0,004
572,5	0,004
572,9	0,004
573,4	0,004
573,8	0,004
574,3	0,004
574,7	0,003
575,2	0,003
575,6	0,003
576,1	0,003
576,5	0,004
576,9	0,003
577,4	0,004
577,8	0,004
578,3	0,004
578,7	0,004
579,2	0,004
579,6	0,005
580,1	0,005
580,5	0,005
581	0,004
581,4	0,004
581,9	0,004
582,3	0,003
582,7	0,003
583,2	0,002
583,6	0,002
584,1	0,002
584,5	0,002
585	0,003
585,4	0,003
585,9	0,003
586,3	0,003
586,8	0,003
587,2	0,003
587,6	0,003
588,1	0,003
588,5	0,003
589	0,003
589,4	0,003
589,9	0,003
590,3	0,003
590,8	0,003
591,2	0,003
591,7	0,003
592,1	0,003
592,5	0,003
593	0,003
593,4	0,003
593,9	0,003
594,3	0,003
594,8	0,003
595,2	0,003
595,7	0,002
596,1	0,002
596,6	0,002
597	0,002
597,4	0,002
597,9	0,002
598,3	0,002
598,8	0,002
599,2	0,002
599,7	0,002
600,1	0,002
600,6	0,002
601	0,002
601,4	0,002
601,9	0,002
602,3	0,002
602,8	0,002
603,2	0,002
603,7	0,002
604,1	0,002
604,6	0,002
605	0,002
605,4	0,002
605,9	0,002
606,3	0,002
606,8	0,002
607,2	0,003
607,7	0,003
608,1	0,003
608,6	0,003
609	0,003
609,4	0,003
609,9	0,003
610,3	0,003
610,8	0,003
611,2	0,003
611,7	0,003
612,1	0,003
612,6	0,003
613	0,003
613,4	0,003
613,9	0,003
614,3	0,002
614,8	0,002
615,2	0,002
615,7	0,002
616,1	0,002
616,6	0,002
617	0,002
617,4	0,002
617,9	0,003
618,3	0,003
618,8	0,003
619,2	0,003
619,7	0,002
620,1	0,002
620,5	0,002
621	0,002
621,4	0,002
621,9	0,001
622,3	0,001
622,8	0,001
623,2	0,001
623,6	0,001
624,1	0,001
624,5	0,001
625	0,002
625,4	0,002
625,9	0,002
626,3	0,002
626,8	0,003
627,2	0,003
627,6	0,002
628,1	0,002
628,5	0,002
629	0,002
629,4	0,002
629,9	0,002
630,3	0,002
630,7	0,002
631,2	0,002
631,6	0,002
632,1	0,002
632,5	0,002
633	0,002
633,4	0,002
633,8	0,002
634,3	0,002
634,7	0,002
635,2	0,002
635,6	0,002
636,1	0,002
636,5	0,002
636,9	0,002
637,4	0,001
637,8	0,001
638,3	0,001
638,7	0,001
639,2	0,001
639,6	0,001
640	0,001
640,5	0,001
640,9	0,001
641,4	0,001
641,8	0,001
642,2	0,002
642,7	0,001
643,1	0,001
643,6	0,002
644	0,001
644,5	0,001
644,9	0,001
645,3	0
645,8	0
646,2	0
646,7	-0
647,1	0
647,6	0
648	0,001
648,4	0,001
648,9	0,002
649,3	0,002
649,8	0,002
650,2	0,002
650,6	0,002
651,1	0,002
651,5	0,002
652	0,002
652,4	0,002
652,9	0,002
653,3	0,003
653,7	0,005
654,2	0,003
654,6	0,002
655,1	0,002
655,5	0
655,9	0
656,4	-0
656,8	-0,001
657,3	-0,001
657,7	-0,001
658,2	-0,002
658,6	0
659	0,001
659,5	0,001
659,9	0,001
660,4	0,001
660,8	0,001
661,2	0,001
661,7	0,001
662,1	0,001
662,6	0,001
663	0,001
663,4	0
663,9	0,001
664,3	0,001
664,8	0,001
665,2	0,001
665,6	0,001
666,1	0,001
666,5	0,001
667	0,001
667,4	0,001
667,9	0,002
668,3	0,002
668,7	0,002
669,2	0,002
669,6	0,002
670,1	0,001
670,5	0,001
670,9	0,001
671,4	0,001
671,8	0,001
672,3	0,001
672,7	0,001
673,1	0
673,6	0
674	0,001
674,5	0,001
674,9	0,001
675,3	0,001
675,8	0,001
676,2	0,002
676,7	0,002
677,1	0,002
677,5	0,002
678	0,002
678,4	0,002
678,9	0,002
679,3	0,002
679,7	0,002
680,2	0,002
680,6	0,002
681,1	0,002
681,5	0,001
681,9	0,001
682,4	0,001
682,8	0
683,3	0
683,7	0
684,1	-0
684,6	0
685	0
685,5	-0
685,9	0
686,3	0
686,8	0
687,2	0,001
687,7	0,001
688,1	0,001
688,5	0,001
689	0,001
689,4	0,001
689,9	0,001
690,3	0,001
690,7	0,002
691,2	0,001
691,6	0,002
692	0,002
692,5	0,001
692,9	0,001
693,4	0,001
693,8	0,001
694,2	0,001
694,7	0,001
695,1	0,001
695,6	0,001
696	0
696,4	0
696,9	-0
697,3	-0
697,8	-0
698,2	-0
698,6	-0
699,1	-0
699,5	-0
699,9	0
700,4	0
700,8	0
701,3	0
701,7	0
702,1	0,001
702,6	0,001
703	0,001
703,5	0,001
703,9	0,001
704,3	0,001
704,8	0,001
705,2	0,001
705,6	0,001
706,1	0,001
706,5	0
707	0,001
707,4	0,001
707,8	0,001
708,3	0,001
708,7	0
709,2	0,001
709,6	0,001
710	0,001
710,5	0,001
710,9	0,001
711,3	0,001
711,8	0,001
712,2	0,001
712,7	0,001
713,1	0,001
713,5	0,001
714	0,001
714,4	0,001
714,8	0,001
715,3	0,001
715,7	0,001
716,2	0,001
716,6	0,001
717	0,001
717,5	0,001
717,9	0,001
718,3	0,001
718,8	0,001
719,2	0,001
719,7	0,001
720,1	0,001
720,5	0,001
721	0,001
721,4	0,001
721,8	0,001
722,3	0,001
722,7	0,001
723,2	0,001
723,6	0,001
724	0,001
724,5	0,001
724,9	0,001
725,3	0,002
725,8	0,002
726,2	0,002
726,7	0,002
727,1	0,001
727,5	0,001
728	0,001
728,4	0,001
728,8	0,001
729,3	0,001
729,7	0,001
730,1	0,001
730,6	0,001
731	0,001
731,5	0,001
731,9	0,001
732,3	0,001
732,8	0,001
733,2	0,001
733,6	0,002
734,1	0,002
734,5	0,001
734,9	0,002
735,4	0,002
735,8	0,002
736,3	0,002
736,7	0,001
737,1	0,001
737,6	0,001
738	0,001
738,4	0
738,9	0
739,3	0
739,7	0
740,2	0
740,6	0
741,1	0
741,5	0
741,9	0
742,4	0
742,8	0
743,2	0
743,7	0
744,1	0,001
744,5	0,001
745	0,001
745,4	0,001
745,8	0,001
746,3	0,001
746,7	0,001
747,2	0,001
747,6	0,001
748	0,001
748,5	0,001
748,9	0,001
749,3	0,001
749,8	0,001
750,2	0,001
750,6	0
751,1	0
751,5	0
751,9	0,001
752,4	0,001
752,8	0
753,3	-0
753,7	0
754,1	0
754,6	0
755	0
755,4	0
755,9	0,001
756,3	0,001
756,7	0,001
757,2	0,001
757,6	0,001
758	0,001
758,5	0,001
758,9	0,001
759,3	0,001
759,8	0,001
760,2	0,001
760,6	0,001
761,1	0,001
761,5	0,001
761,9	0,001
762,4	0,002
762,8	0,002
763,3	0,002
763,7	0,002
764,1	0,002
764,6	0,001
765	0,001
765,4	0
765,9	-0
766,3	-0,001
766,7	-0,001
767,2	-0,001
767,6	-0,001
768	-0,001
768,5	-0
768,9	0
769,3	0
769,8	-0
770,2	0
770,6	0,001
771,1	0,001
771,5	0,001
771,9	0,001
772,4	0,002
772,8	0,002
773,2	0,003
773,7	0,003
774,1	0,003
774,5	0,003
775	0,003
775,4	0,002
775,8	0,002
776,3	0,003
776,7	0,003
777,1	0,002
777,6	0,002
778	0,002
778,4	0,002
778,9	0,002
779,3	0,002
779,7	0,002
780,2	0,002
780,6	0,002
781	0,003
781,5	0,003
781,9	0,003
782,3	0,003
782,8	0,003
783,2	0,003
783,6	0,003
784,1	0,002
784,5	0,002
784,9	0,002
785,4	0,002
785,8	0,002
786,2	0,001
786,7	0,001
787,1	0
787,5	-0
788	0
788,4	-0
788,8	-0
789,3	-0
789,7	0
790,1	0
790,6	0
791	0
791,4	0,001
791,9	0,001
792,3	0,001
792,7	0,001
793,2	0,001
793,6	0,001
794	0,001
794,5	0,001
794,9	0,001
795,3	0,001
795,8	0,001
796,2	0,002
796,6	0,002
797,1	0,002
797,5	0,002
797,9	0,002
798,4	0,002
798,8	0,002
799,2	0,002
799,7	0,001
800,1	0,001
800,5	0,001
801	0,001
801,4	0,001
801,8	0,001
802,2	0,001
802,7	0,001
803,1	0,001
803,5	0,001
804	0,002
804,4	0,002
804,8	0,002
805,3	0,002
805,7	0,001
806,1	0,001
806,6	0,001
807	0,001
807,4	0,001
807,9	0,001
808,3	0,001
808,7	0,001
809,2	0,001
809,6	0,001
810	0,001
810,4	0,001
810,9	0,001
811,3	0,001
811,7	0,001
812,2	0,001
812,6	0,001
813	0
813,5	0
813,9	0
814,3	0
814,8	0
815,2	-0
815,6	-0
816,1	-0
816,5	-0
816,9	-0
817,3	-0
817,8	-0
818,2	-0
818,6	-0
819,1	0
819,5	0,001
819,9	0,001
820,4	0,001
820,8	0,001
821,2	0,002
821,7	0,002
822,1	0,001
822,5	0,001
822,9	0,001
823,4	0,001
823,8	0,001
824,2	0,001
824,7	0,001
825,1	0
825,5	0
826	0
826,4	0
826,8	0
827,3	0
827,7	0
828,1	0
828,5	0,001
829	0,001
829,4	0,001
829,8	0,001
830,3	0,001
830,7	0,001
831,1	0,001
831,6	0,001
832	0,001
832,4	0,001
832,8	0,001
833,3	0
833,7	0
834,1	0
834,6	0
835	0,001
835,4	0,001
835,8	0,001
836,3	0,001
836,7	0,001
837,1	0,001
837,6	0,001
838	0,002
838,4	0,002
838,9	0,002
839,3	0,002
839,7	0,002
840,1	0,002
840,6	0,001
841	0,001
841,4	0,001
841,9	0,001
842,3	0,001
842,7	0,001
843,1	0,002
843,6	0,002
844	0,002
844,4	0,001
844,9	0,001
845,3	0,001
845,7	0
846,2	0
846,6	0
847	0,001
847,4	0,001
847,9	0,002
848,3	0,002
848,7	0,002
849,2	0,002
849,6	0,002
850	0,002
850,4	0,002
850,9	0,002
851,3	0,002
851,7	0,002
852,2	0,002
852,6	0,002
853	0,002
853,4	0,002
853,9	0,002
854,3	0,002
854,7	0,002
855,2	0,002
855,6	0,002
856	0,002
856,4	0,002
856,9	0,002
857,3	0,002
857,7	0,002
858,2	0,002
858,6	0,002
859	0,002
859,4	0,002
859,9	0,002
860,3	0,002
860,7	0,002
861,1	0,002
861,6	0,001
862	0,002
862,4	0,002
862,9	0,002
863,3	0,003
863,7	0,003
864,1	0,002
864,6	0,002
865	0,002
865,4	0,002
865,9	0,001
866,3	0,001
866,7	0
867,1	0
867,6	-0
868	-0,001
868,4	-0,001
868,8	-0
869,3	0
869,7	0
870,1	0,001
870,6	0,001
871	0,001
871,4	0,001
871,8	0,001
872,3	0
872,7	0
873,1	0
873,5	0
874	0
874,4	-0
874,8	0
875,3	0,001
875,7	0,001
876,1	0,001
876,5	0,001
877	0
877,4	0,001
877,8	0,001
878,2	0,001
878,7	0,001
879,1	0,001
879,5	0,001
879,9	0,001
880,4	0,001
880,8	0,001
881,2	0,001
881,7	0,001
882,1	0,001
882,5	0,002
882,9	0,002
883,4	0,002
883,8	0,002
884,2	0,001
884,6	0,002
885,1	0,002
885,5	0,001
885,9	0,001
886,3	0,001
886,8	0,001
887,2	0,002
887,6	0,001
888	0,001
888,5	0,002
888,9	0,001
889,3	0,001
889,8	0,001
890,2	0,001
890,6	0,001
891	0,001
891,5	0,001
891,9	0,001
892,3	0,001
892,7	0,002
893,2	0,002
893,6	0,002
894	0,002
894,4	0,002
894,9	0,002
895,3	0,002
895,7	0,002
896,1	0,002
896,6	0,002
897	0,001
897,4	0,001
897,8	0,001
898,3	0,001
898,7	0,001
899,1	0,001
899,5	0,001
900	0
900,4	0
900,8	0
901,2	-0
901,7	0
902,1	-0
902,5	-0
902,9	-0
903,4	-0,001
903,8	-0,001
904,2	-0,001
904,6	-0
905,1	0
905,5	0,001
905,9	0,001
906,3	0,002
906,8	0,002
907,2	0,002
907,6	0,001
908	0,001
908,5	0,001
908,9	0,001
909,3	0,001
909,7	0,001
910,2	0,001
910,6	0,002
911	0,001
911,4	0,001
911,9	0,001
912,3	0,001
912,7	0,001
913,1	0,001
913,6	0,001
914	0,001
914,4	0,001
914,8	0,001
915,3	0,002
915,7	0,001
916,1	0,001
916,5	0,001
916,9	0,001
917,4	0,001
917,8	0,001
918,2	0,001
918,6	0,001
919,1	0,001
919,5	0,001
919,9	0,001
920,3	0,001
920,8	0,001
921,2	0,001
921,6	0,001
922	0,001
922,5	0,001
922,9	0,001
923,3	0,001
923,7	0,002
924,2	0,002
924,6	0,002
925	0,002
925,4	0,002
925,8	0,002
926,3	0,002
926,7	0,003
927,1	0,003
927,5	0,003
928	0,002
928,4	0,002
928,8	0,002
929,2	0,002
929,7	0,001
930,1	0,001
930,5	0,001
930,9	0,001
931,3	0,001
931,8	0,001
932,2	0
932,6	0
933	0
933,5	0
933,9	-0
934,3	-0
934,7	-0
935,2	-0
935,6	0
936	0
936,4	0
936,8	0,001
937,3	0,001
937,7	0,001
938,1	0,001
938,5	0
939	0
939,4	0
939,8	0
940,2	0
940,6	0,001
941,1	0,001
941,5	0,002
941,9	0,003
942,3	0,003
942,8	0,003
943,2	0,003
943,6	0,003
944	0,002
944,4	0,002
944,9	0,002
945,3	0,001
945,7	0,002
946,1	0,002
946,6	0,003
947	0,003
947,4	0,003
947,8	0,003
948,2	0,003
948,7	0,003
949,1	0,003
949,5	0,003
949,9	0,003
950,3	0,003
950,8	0,003
951,2	0,003
951,6	0,003
952	0,004
952,5	0,004
952,9	0,003
953,3	0,004
953,7	0,004
954,1	0,004
954,6	0,004
955	0,004
955,4	0,004
955,8	0,004
956,2	0,004
956,7	0,003
957,1	0,003
957,5	0,003
957,9	0,003
958,3	0,003
958,8	0,002
959,2	0,002
959,6	0,002
960	0,002
960,5	0,002
960,9	0,002
961,3	0,003
961,7	0,003
962,1	0,003
962,6	0,004
963	0,004
963,4	0,004
963,8	0,004
964,2	0,003
964,7	0,003
965,1	0,003
965,5	0,003
965,9	0,003
966,3	0,003
966,8	0,003
967,2	0,003
967,6	0,003
968	0,004
968,4	0,004
968,9	0,004
969,3	0,004
969,7	0,005
970,1	0,005
970,5	0,005
971	0,005
971,4	0,005
971,8	0,005
972,2	0,005
972,6	0,005
973,1	0,005
973,5	0,005
973,9	0,004
974,3	0,004
974,7	0,003
975,2	0,003
975,6	0,003
976	0,004
976,4	0,004
976,8	0,004
977,3	0,004
977,7	0,004
978,1	0,004
978,5	0,004
978,9	0,003
979,4	0,003
979,8	0,003
980,2	0,003
980,6	0,003
981	0,003
981,5	0,003
981,9	0,003
982,3	0,003
982,7	0,003
983,1	0,003
983,6	0,003
984	0,003
984,4	0,003
984,8	0,003
985,2	0,003
985,6	0,003
986,1	0,003
986,5	0,003
986,9	0,004
987,3	0,003
987,7	0,003
988,2	0,002
988,6	0,002
989	0,002
989,4	0,001
989,8	0,001
990,3	0,001
990,7	0,001
991,1	0,001
991,5	0,001
991,9	0,001
992,3	0,001
992,8	0,002
993,2	0,002
993,6	0,002
994	0,002
994,4	0,002
994,9	0,002
995,3	0,002
995,7	0,003
996,1	0,002
996,5	0,002
996,9	0,002
997,4	0,002
997,8	0,001
998,2	0,001
998,6	0
999	0
999,5	-0
999,9	-0
1000,3	-0,001
1000,7	-0,001
1001,1	-0,001
1001,5	-0,001
1002	-0,001
1002,4	-0
1002,8	-0
1003,2	-0
1003,6	0,001
1004	0
1004,5	0,001
1004,9	0,001
1005,3	0,001
1005,7	0,001
1006,1	0,001
1006,6	0,001
1007	0,002
1007,4	0,002
1007,8	0,002
1008,2	0,001
1008,6	0,001
1009,1	0,001
1009,5	0,001
1009,9	0
1010,3	0
1010,7	0
1011,1	0,001
1011,6	0,002
1012	0,001
1012,4	0,001
1012,8	0,002
1013,2	0,001
1013,6	0,002
1014,1	0,002
1014,5	0,001
1014,9	0,002
1015,3	0,001
1015,7	0,001
1016,1	0,001
1016,6	0,001
1017	0,001
1017,4	0,001
1017,8	0,001
1018,2	0
1018,6	-0
1019,1	0
1019,5	-0
1019,9	-0
1020,3	0
1020,7	0
1021,1	0
1021,6	0,001
1022	0
1022,4	0
1022,8	0
1023,2	0
1023,6	0
1024,1	0,001
1024,5	0,001
1024,9	0
1025,3	0
1025,7	0
1026,1	0
1026,6	-0
1027	-0
1027,4	0
1027,8	0
1028,2	0
1028,6	0,001
1029	0
1029,5	0,001
1029,9	0,001
1030,3	0
1030,7	-0
1031,1	-0,001
1031,5	-0,001
1032	-0,001
1032,4	-0,001
1032,8	-0,001
1033,2	-0
1033,6	0
1034	0
1034,4	0
1034,9	0,001
1035,3	0,001
1035,7	0,001
1036,1	0,001
1036,5	0,001
1036,9	0,001
1037,4	0,001
1037,8	0,002
1038,2	0,002
1038,6	0,002
1039	0,002
1039,4	0,002
1039,8	0,002
1040,3	0,003
1040,7	0,002
1041,1	0,002
1041,5	0,002
1041,9	0,002
1042,3	0,002
1042,7	0,002
1043,2	0,001
1043,6	0,001
1044	0,001
1044,4	0,001
1044,8	0,001
1045,2	0,001
1045,6	0,002
1046,1	0,002
1046,5	0,002
1046,9	0,002
1047,3	0,002
1047,7	0,002
1048,1	0,002
1048,5	0,002
1049	0,002
1049,4	0,003
1049,8	0,004
1050,2	0,004
1050,6	0,004
1051	0,004
1051,4	0,004
1051,9	0,004
1052,3	0,004
1052,7	0,003
1053,1	0,004
1053,5	0,003
1053,9	0,003
1054,3	0,003
1054,8	0,002
1055,2	0,002
1055,6	0,003
1056	0,002
1056,4	0,002
1056,8	0,003
1057,2	0,003
1057,6	0,004
1058,1	0,004
1058,5	0,004
1058,9	0,004
1059,3	0,004
1059,7	0,005
1060,1	0,005
1060,5	0,005
1061	0,004
1061,4	0,003
1061,8	0,004
1062,2	0,004
1062,6	0,004
1063	0,003
1063,4	0,003
1063,8	0,004
1064,3	0,005
1064,7	0,005
1065,1	0,004
1065,5	0,003
1065,9	0,003
1066,3	0,004
1066,7	0,003
1067,1	0,002
1067,6	0,002
1068	0,002
1068,4	0,003
1068,8	0,003
1069,2	0,003
1069,6	0,003
1070	0,003
1070,4	0,004
1070,9	0,004
1071,3	0,005
1071,7	0,005
1072,1	0,005
1072,5	0,005
1072,9	0,005
1073,3	0,004
1073,7	0,004
1074,2	0,004
1074,6	0,004
1075	0,004
1075,4	0,003
1075,8	0,004
1076,2	0,004
1076,6	0,003
1077	0,003
1077,5	0,003
1077,9	0,002
1078,3	0,002
1078,7	0,002
1079,1	0,002
1079,5	0,002
1079,9	0,003
1080,3	0,004
1080,7	0,003
1081,2	0,003
1081,6	0,004
1082	0,003
1082,4	0,003
1082,8	0,002
1083,2	0,002
1083,6	0,002
1084	0,002
1084,5	0,001
1084,9	0
1085,3	0,001
1085,7	0,002
1086,1	0,002
1086,5	0,005
1086,9	0,006
1087,3	0,006
1087,7	0,008
1088,2	0,006
1088,6	0,005
1089	0,006
1089,4	0,005
1089,8	0,004
1090,2	0,004
1090,6	0,005
1091	0,01
1091,4	0,01
1091,9	0,006
1092,3	0,005
1092,7	0,005
1093,1	0,006
1093,5	0,007
1093,9	0,006
1094,3	0,005
1094,7	0,008
1095,1	0,012
1095,5	0,015
1096	0,012
1096,4	0,015
1096,8	0,017
1097,2	0,019
1097,6	0,017
1098	0,013
1098,4	0,019
1098,8	0,026
1099,2	0,025
1099,6	0,024
1100,1	0,029
1100,5	0,029
1100,9	0,029
1101,3	0,024
1101,7	0,025
1102,1	0,02
1102,5	0,017
1102,9	0,016
1103,3	0,026
1103,7	0,035
1104,2	0,028
1104,6	0,028
1105	0,033
1105,4	0,035
1105,8	0,037
1106,2	0,033
1106,6	0,042
1107	0,048
1107,4	0,054
1107,8	0,038
1108,3	-0,74
