Data from Absorbance_180.txt Node
Date: Fri Nov 13 20:24:56 MSK 2020
User: vat
Spectrometer: MAYP114033
Trigger mode: 0
Integration Time (sec): 8,000000E-3
Scans to average: 10
Electric dark correction enabled: true
Nonlinearity correction enabled: false
Boxcar width: 3
XAxis mode: Wavelengths
Number of Pixels in Spectrum: 2068
>>>>>Begin Spectral Data<<<<<
199,4	-0
199,9	0,849
200,4	0,343
200,8	0,209
201,3	0,109
201,8	0,121
202,2	0,123
202,7	0,113
203,2	0,092
203,6	0,091
204,1	0,088
204,6	0,082
205	0,064
205,5	0,064
206	0,073
206,4	0,076
206,9	0,081
207,4	0,096
207,8	0,107
208,3	0,11
208,8	0,101
209,2	0,092
209,7	0,089
210,2	0,077
210,6	0,068
211,1	0,076
211,5	0,082
212	0,074
212,5	0,082
212,9	0,1
213,4	0,083
213,9	0,088
214,3	0,078
214,8	0,082
215,3	0,095
215,7	0,094
216,2	0,105
216,7	0,133
217,1	0,134
217,6	0,122
218,1	0,118
218,5	0,118
219	0,112
219,5	0,1
219,9	0,089
220,4	0,088
220,9	0,114
221,3	0,112
221,8	0,105
222,3	0,105
222,7	0,098
223,2	0,112
223,6	0,108
224,1	0,106
224,6	0,122
225	0,138
225,5	0,139
226	0,143
226,4	0,142
226,9	0,144
227,4	0,129
227,8	0,131
228,3	0,128
228,8	0,141
229,2	0,132
229,7	0,123
230,2	0,111
230,6	0,118
231,1	0,117
231,5	0,105
232	0,094
232,5	0,107
232,9	0,12
233,4	0,145
233,9	0,144
234,3	0,143
234,8	0,149
235,3	0,159
235,7	0,153
236,2	0,158
236,7	0,156
237,1	0,16
237,6	0,148
238,1	0,147
238,5	0,135
239	0,147
239,4	0,141
239,9	0,135
240,4	0,138
240,8	0,151
241,3	0,156
241,8	0,157
242,2	0,15
242,7	0,146
243,2	0,143
243,6	0,141
244,1	0,14
244,6	0,146
245	0,148
245,5	0,162
245,9	0,169
246,4	0,189
246,9	0,192
247,3	0,194
247,8	0,196
248,3	0,212
248,7	0,214
249,2	0,227
249,7	0,227
250,1	0,227
250,6	0,226
251	0,229
251,5	0,227
252	0,22
252,4	0,219
252,9	0,219
253,4	0,219
253,8	0,219
254,3	0,222
254,8	0,225
255,2	0,231
255,7	0,234
256,1	0,236
256,6	0,24
257,1	0,244
257,5	0,247
258	0,251
258,5	0,253
258,9	0,257
259,4	0,262
259,9	0,266
260,3	0,27
260,8	0,275
261,2	0,279
261,7	0,285
262,2	0,291
262,6	0,296
263,1	0,302
263,6	0,306
264	0,311
264,5	0,316
264,9	0,321
265,4	0,326
265,9	0,33
266,3	0,336
266,8	0,341
267,3	0,346
267,7	0,352
268,2	0,358
268,7	0,363
269,1	0,37
269,6	0,375
270	0,382
270,5	0,388
271	0,393
271,4	0,397
271,9	0,402
272,4	0,406
272,8	0,41
273,3	0,414
273,7	0,418
274,2	0,422
274,7	0,427
275,1	0,431
275,6	0,436
276,1	0,439
276,5	0,443
277	0,447
277,4	0,449
277,9	0,452
278,4	0,454
278,8	0,456
279,3	0,458
279,8	0,459
280,2	0,461
280,7	0,463
281,1	0,463
281,6	0,463
282,1	0,464
282,5	0,464
283	0,463
283,4	0,463
283,9	0,461
284,4	0,459
284,8	0,458
285,3	0,456
285,8	0,453
286,2	0,449
286,7	0,446
287,1	0,442
287,6	0,439
288,1	0,434
288,5	0,43
289	0,424
289,5	0,419
289,9	0,413
290,4	0,408
290,8	0,402
291,3	0,396
291,8	0,389
292,2	0,383
292,7	0,376
293,1	0,369
293,6	0,361
294,1	0,354
294,5	0,346
295	0,338
295,5	0,331
295,9	0,323
296,4	0,315
296,8	0,306
297,3	0,298
297,8	0,289
298,2	0,281
298,7	0,273
299,1	0,264
299,6	0,256
300,1	0,249
300,5	0,241
301	0,234
301,5	0,227
301,9	0,219
302,4	0,212
302,8	0,205
303,3	0,198
303,8	0,192
304,2	0,185
304,7	0,178
305,1	0,172
305,6	0,167
306,1	0,161
306,5	0,156
307	0,15
307,4	0,146
307,9	0,141
308,4	0,137
308,8	0,132
309,3	0,128
309,8	0,124
310,2	0,121
310,7	0,117
311,1	0,114
311,6	0,11
312,1	0,107
312,5	0,104
313	0,101
313,4	0,099
313,9	0,096
314,4	0,094
314,8	0,091
315,3	0,089
315,7	0,088
316,2	0,086
316,7	0,083
317,1	0,082
317,6	0,081
318	0,079
318,5	0,078
319	0,077
319,4	0,076
319,9	0,075
320,3	0,074
320,8	0,073
321,3	0,072
321,7	0,071
322,2	0,07
322,6	0,069
323,1	0,068
323,6	0,068
324	0,067
324,5	0,066
324,9	0,066
325,4	0,065
325,9	0,064
326,3	0,064
326,8	0,064
327,2	0,063
327,7	0,063
328,2	0,062
328,6	0,062
329,1	0,061
329,5	0,061
330	0,06
330,5	0,059
330,9	0,059
331,4	0,059
331,8	0,059
332,3	0,059
332,8	0,059
333,2	0,058
333,7	0,058
334,1	0,058
334,6	0,057
335,1	0,057
335,5	0,056
336	0,056
336,4	0,056
336,9	0,056
337,4	0,056
337,8	0,056
338,3	0,056
338,7	0,057
339,2	0,056
339,7	0,056
340,1	0,055
340,6	0,055
341	0,055
341,5	0,054
342	0,054
342,4	0,054
342,9	0,054
343,3	0,054
343,8	0,054
344,2	0,054
344,7	0,054
345,2	0,054
345,6	0,054
346,1	0,054
346,5	0,053
347	0,053
347,5	0,053
347,9	0,053
348,4	0,052
348,8	0,052
349,3	0,051
349,8	0,051
350,2	0,051
350,7	0,05
351,1	0,05
351,6	0,051
352	0,05
352,5	0,05
353	0,05
353,4	0,05
353,9	0,05
354,3	0,05
354,8	0,05
355,3	0,05
355,7	0,049
356,2	0,049
356,6	0,049
357,1	0,049
357,5	0,049
358	0,049
358,5	0,049
358,9	0,049
359,4	0,049
359,8	0,049
360,3	0,049
360,8	0,049
361,2	0,049
361,7	0,049
362,1	0,049
362,6	0,049
363	0,049
363,5	0,048
364	0,048
364,4	0,047
364,9	0,047
365,3	0,047
365,8	0,047
366,3	0,047
366,7	0,046
367,2	0,046
367,6	0,046
368,1	0,046
368,5	0,045
369	0,045
369,5	0,044
369,9	0,044
370,4	0,044
370,8	0,044
371,3	0,044
371,7	0,044
372,2	0,044
372,7	0,045
373,1	0,044
373,6	0,045
374	0,045
374,5	0,045
374,9	0,045
375,4	0,045
375,9	0,045
376,3	0,045
376,8	0,044
377,2	0,043
377,7	0,043
378,2	0,043
378,6	0,042
379,1	0,042
379,5	0,042
380	0,042
380,4	0,042
380,9	0,041
381,4	0,041
381,8	0,041
382,3	0,04
382,7	0,04
383,2	0,041
383,6	0,041
384,1	0,041
384,6	0,041
385	0,041
385,5	0,041
385,9	0,041
386,4	0,04
386,8	0,04
387,3	0,04
387,7	0,04
388,2	0,041
388,7	0,041
389,1	0,041
389,6	0,041
390	0,041
390,5	0,04
390,9	0,04
391,4	0,039
391,9	0,039
392,3	0,039
392,8	0,039
393,2	0,039
393,7	0,039
394,1	0,039
394,6	0,039
395,1	0,039
395,5	0,039
396	0,039
396,4	0,039
396,9	0,038
397,3	0,038
397,8	0,038
398,2	0,037
398,7	0,038
399,2	0,038
399,6	0,037
400,1	0,038
400,5	0,038
401	0,038
401,4	0,038
401,9	0,037
402,4	0,037
402,8	0,037
403,3	0,037
403,7	0,036
404,2	0,036
404,6	0,036
405,1	0,035
405,5	0,035
406	0,035
406,5	0,035
406,9	0,035
407,4	0,035
407,8	0,035
408,3	0,035
408,7	0,035
409,2	0,035
409,6	0,035
410,1	0,034
410,6	0,034
411	0,034
411,5	0,035
411,9	0,034
412,4	0,034
412,8	0,034
413,3	0,034
413,7	0,034
414,2	0,034
414,7	0,034
415,1	0,034
415,6	0,034
416	0,034
416,5	0,035
416,9	0,035
417,4	0,034
417,8	0,034
418,3	0,035
418,8	0,035
419,2	0,034
419,7	0,034
420,1	0,034
420,6	0,034
421	0,034
421,5	0,034
421,9	0,034
422,4	0,034
422,8	0,034
423,3	0,033
423,8	0,033
424,2	0,033
424,7	0,033
425,1	0,033
425,6	0,032
426	0,032
426,5	0,032
426,9	0,033
427,4	0,033
427,9	0,033
428,3	0,032
428,8	0,032
429,2	0,032
429,7	0,032
430,1	0,032
430,6	0,032
431	0,031
431,5	0,032
431,9	0,032
432,4	0,031
432,8	0,031
433,3	0,031
433,8	0,031
434,2	0,032
434,7	0,031
435,1	0,031
435,6	0,031
436	0,031
436,5	0,031
436,9	0,03
437,4	0,03
437,8	0,03
438,3	0,03
438,8	0,031
439,2	0,031
439,7	0,031
440,1	0,031
440,6	0,031
441	0,031
441,5	0,031
441,9	0,031
442,4	0,03
442,8	0,03
443,3	0,03
443,7	0,03
444,2	0,03
444,7	0,03
445,1	0,03
445,6	0,031
446	0,031
446,5	0,031
446,9	0,031
447,4	0,031
447,8	0,03
448,3	0,03
448,7	0,03
449,2	0,029
449,6	0,029
450,1	0,029
450,6	0,029
451	0,029
451,5	0,029
451,9	0,029
452,4	0,029
452,8	0,029
453,3	0,03
453,7	0,03
454,2	0,029
454,6	0,03
455,1	0,03
455,5	0,03
456	0,03
456,4	0,03
456,9	0,03
457,3	0,029
457,8	0,029
458,3	0,029
458,7	0,028
459,2	0,028
459,6	0,028
460,1	0,028
460,5	0,028
461	0,028
461,4	0,028
461,9	0,028
462,3	0,028
462,8	0,029
463,2	0,029
463,7	0,028
464,1	0,028
464,6	0,028
465	0,028
465,5	0,028
466	0,028
466,4	0,027
466,9	0,027
467,3	0,027
467,8	0,027
468,2	0,026
468,7	0,027
469,1	0,026
469,6	0,026
470	0,027
470,5	0,027
470,9	0,027
471,4	0,027
471,8	0,027
472,3	0,028
472,7	0,027
473,2	0,028
473,6	0,028
474,1	0,028
474,5	0,028
475	0,027
475,4	0,028
475,9	0,027
476,4	0,027
476,8	0,027
477,3	0,027
477,7	0,027
478,2	0,027
478,6	0,027
479,1	0,027
479,5	0,028
480	0,028
480,4	0,027
480,9	0,027
481,3	0,027
481,8	0,027
482,2	0,027
482,7	0,027
483,1	0,027
483,6	0,028
484	0,027
484,5	0,027
484,9	0,027
485,4	0,026
485,8	0,026
486,3	0,026
486,7	0,025
487,2	0,025
487,6	0,026
488,1	0,026
488,5	0,026
489	0,026
489,4	0,026
489,9	0,025
490,4	0,025
490,8	0,025
491,3	0,025
491,7	0,025
492,2	0,025
492,6	0,025
493,1	0,025
493,5	0,026
494	0,025
494,4	0,025
494,9	0,025
495,3	0,025
495,8	0,025
496,2	0,025
496,7	0,025
497,1	0,025
497,6	0,026
498	0,026
498,5	0,025
498,9	0,025
499,4	0,025
499,8	0,025
500,3	0,024
500,7	0,024
501,2	0,024
501,6	0,024
502,1	0,024
502,5	0,024
503	0,024
503,4	0,024
503,9	0,025
504,3	0,025
504,8	0,025
505,2	0,025
505,7	0,025
506,1	0,025
506,6	0,024
507	0,024
507,5	0,024
507,9	0,023
508,4	0,023
508,8	0,023
509,3	0,023
509,7	0,023
510,2	0,023
510,6	0,023
511,1	0,023
511,5	0,023
512	0,023
512,4	0,022
512,9	0,023
513,3	0,022
513,8	0,022
514,2	0,022
514,7	0,023
515,1	0,023
515,6	0,023
516	0,022
516,5	0,023
516,9	0,023
517,4	0,022
517,8	0,022
518,3	0,022
518,7	0,022
519,2	0,022
519,6	0,022
520,1	0,022
520,5	0,022
521	0,022
521,4	0,021
521,9	0,021
522,3	0,022
522,8	0,021
523,2	0,021
523,7	0,021
524,1	0,021
524,6	0,021
525	0,021
525,5	0,021
525,9	0,021
526,4	0,021
526,8	0,021
527,3	0,021
527,7	0,021
528,2	0,021
528,6	0,021
529,1	0,021
529,5	0,021
530	0,02
530,4	0,02
530,9	0,02
531,3	0,021
531,8	0,02
532,2	0,02
532,6	0,02
533,1	0,021
533,5	0,021
534	0,021
534,4	0,021
534,9	0,021
535,3	0,021
535,8	0,021
536,2	0,021
536,7	0,02
537,1	0,02
537,6	0,021
538	0,021
538,5	0,021
538,9	0,021
539,4	0,021
539,8	0,021
540,3	0,021
540,7	0,021
541,2	0,02
541,6	0,02
542,1	0,019
542,5	0,019
543	0,019
543,4	0,019
543,9	0,018
544,3	0,018
544,8	0,018
545,2	0,018
545,7	0,019
546,1	0,019
546,5	0,019
547	0,019
547,4	0,019
547,9	0,019
548,3	0,019
548,8	0,019
549,2	0,019
549,7	0,019
550,1	0,019
550,6	0,018
551	0,019
551,5	0,019
551,9	0,019
552,4	0,019
552,8	0,019
553,3	0,019
553,7	0,019
554,2	0,018
554,6	0,018
555,1	0,018
555,5	0,017
555,9	0,018
556,4	0,018
556,8	0,018
557,3	0,018
557,7	0,018
558,2	0,018
558,6	0,018
559,1	0,018
559,5	0,018
560	0,018
560,4	0,017
560,9	0,017
561,3	0,017
561,8	0,017
562,2	0,017
562,7	0,018
563,1	0,018
563,6	0,017
564	0,017
564,4	0,017
564,9	0,017
565,3	0,017
565,8	0,017
566,2	0,017
566,7	0,017
567,1	0,017
567,6	0,017
568	0,017
568,5	0,017
568,9	0,017
569,4	0,018
569,8	0,017
570,3	0,017
570,7	0,017
571,1	0,017
571,6	0,017
572	0,017
572,5	0,017
572,9	0,017
573,4	0,017
573,8	0,017
574,3	0,017
574,7	0,017
575,2	0,017
575,6	0,017
576,1	0,017
576,5	0,017
576,9	0,017
577,4	0,017
577,8	0,016
578,3	0,016
578,7	0,016
579,2	0,016
579,6	0,017
580,1	0,016
580,5	0,016
581	0,016
581,4	0,016
581,9	0,016
582,3	0,016
582,7	0,016
583,2	0,016
583,6	0,016
584,1	0,016
584,5	0,016
585	0,016
585,4	0,016
585,9	0,016
586,3	0,016
586,8	0,016
587,2	0,016
587,6	0,016
588,1	0,016
588,5	0,016
589	0,016
589,4	0,016
589,9	0,016
590,3	0,017
590,8	0,017
591,2	0,016
591,7	0,016
592,1	0,016
592,5	0,016
593	0,016
593,4	0,016
593,9	0,016
594,3	0,016
594,8	0,015
595,2	0,015
595,7	0,016
596,1	0,015
596,6	0,015
597	0,015
597,4	0,015
597,9	0,015
598,3	0,015
598,8	0,015
599,2	0,015
599,7	0,015
600,1	0,015
600,6	0,015
601	0,014
601,4	0,014
601,9	0,014
602,3	0,014
602,8	0,014
603,2	0,014
603,7	0,014
604,1	0,014
604,6	0,014
605	0,014
605,4	0,014
605,9	0,014
606,3	0,014
606,8	0,014
607,2	0,014
607,7	0,014
608,1	0,014
608,6	0,014
609	0,014
609,4	0,014
609,9	0,014
610,3	0,014
610,8	0,014
611,2	0,014
611,7	0,014
612,1	0,014
612,6	0,014
613	0,014
613,4	0,014
613,9	0,014
614,3	0,014
614,8	0,014
615,2	0,013
615,7	0,013
616,1	0,013
616,6	0,013
617	0,013
617,4	0,013
617,9	0,014
618,3	0,014
618,8	0,014
619,2	0,014
619,7	0,014
620,1	0,014
620,5	0,014
621	0,014
621,4	0,014
621,9	0,014
622,3	0,014
622,8	0,014
623,2	0,014
623,6	0,014
624,1	0,014
624,5	0,013
625	0,013
625,4	0,013
625,9	0,013
626,3	0,014
626,8	0,013
627,2	0,014
627,6	0,014
628,1	0,014
628,5	0,014
629	0,014
629,4	0,013
629,9	0,014
630,3	0,013
630,7	0,013
631,2	0,013
631,6	0,013
632,1	0,013
632,5	0,013
633	0,013
633,4	0,013
633,8	0,014
634,3	0,014
634,7	0,014
635,2	0,013
635,6	0,013
636,1	0,013
636,5	0,013
636,9	0,013
637,4	0,013
637,8	0,013
638,3	0,012
638,7	0,013
639,2	0,012
639,6	0,012
640	0,013
640,5	0,013
640,9	0,013
641,4	0,014
641,8	0,013
642,2	0,013
642,7	0,013
643,1	0,013
643,6	0,013
644	0,013
644,5	0,013
644,9	0,013
645,3	0,013
645,8	0,013
646,2	0,013
646,7	0,013
647,1	0,013
647,6	0,013
648	0,013
648,4	0,012
648,9	0,012
649,3	0,012
649,8	0,012
650,2	0,012
650,6	0,012
651,1	0,012
651,5	0,012
652	0,012
652,4	0,012
652,9	0,012
653,3	0,014
653,7	0,018
654,2	0,012
654,6	0,009
655,1	0,007
655,5	0,007
655,9	0,007
656,4	0,006
656,8	0,004
657,3	0,005
657,7	0,007
658,2	0,011
658,6	0,011
659	0,011
659,5	0,011
659,9	0,011
660,4	0,011
660,8	0,011
661,2	0,011
661,7	0,01
662,1	0,01
662,6	0,01
663	0,01
663,4	0,01
663,9	0,01
664,3	0,01
664,8	0,01
665,2	0,01
665,6	0,01
666,1	0,01
666,5	0,01
667	0,01
667,4	0,01
667,9	0,01
668,3	0,01
668,7	0,01
669,2	0,011
669,6	0,01
670,1	0,011
670,5	0,011
670,9	0,011
671,4	0,011
671,8	0,011
672,3	0,011
672,7	0,011
673,1	0,011
673,6	0,011
674	0,011
674,5	0,011
674,9	0,011
675,3	0,011
675,8	0,012
676,2	0,012
676,7	0,012
677,1	0,012
677,5	0,011
678	0,012
678,4	0,011
678,9	0,011
679,3	0,01
679,7	0,01
680,2	0,01
680,6	0,01
681,1	0,01
681,5	0,01
681,9	0,011
682,4	0,011
682,8	0,011
683,3	0,012
683,7	0,012
684,1	0,011
684,6	0,011
685	0,011
685,5	0,011
685,9	0,011
686,3	0,011
686,8	0,011
687,2	0,011
687,7	0,011
688,1	0,011
688,5	0,011
689	0,011
689,4	0,011
689,9	0,011
690,3	0,011
690,7	0,011
691,2	0,01
691,6	0,01
692	0,01
692,5	0,009
692,9	0,009
693,4	0,009
693,8	0,01
694,2	0,01
694,7	0,011
695,1	0,011
695,6	0,011
696	0,012
696,4	0,012
696,9	0,011
697,3	0,011
697,8	0,011
698,2	0,011
698,6	0,011
699,1	0,011
699,5	0,011
699,9	0,01
700,4	0,01
700,8	0,01
701,3	0,01
701,7	0,01
702,1	0,01
702,6	0,009
703	0,01
703,5	0,01
703,9	0,01
704,3	0,01
704,8	0,01
705,2	0,01
705,6	0,011
706,1	0,011
706,5	0,011
707	0,011
707,4	0,011
707,8	0,011
708,3	0,01
708,7	0,01
709,2	0,01
709,6	0,01
710	0,01
710,5	0,01
710,9	0,01
711,3	0,01
711,8	0,009
712,2	0,01
712,7	0,01
713,1	0,01
713,5	0,01
714	0,01
714,4	0,01
714,8	0,011
715,3	0,011
715,7	0,011
716,2	0,01
716,6	0,01
717	0,01
717,5	0,01
717,9	0,01
718,3	0,01
718,8	0,01
719,2	0,01
719,7	0,01
720,1	0,01
720,5	0,01
721	0,01
721,4	0,01
721,8	0,01
722,3	0,01
722,7	0,009
723,2	0,009
723,6	0,01
724	0,01
724,5	0,01
724,9	0,01
725,3	0,009
725,8	0,01
726,2	0,01
726,7	0,009
727,1	0,01
727,5	0,01
728	0,01
728,4	0,01
728,8	0,01
729,3	0,01
729,7	0,01
730,1	0,011
730,6	0,011
731	0,011
731,5	0,011
731,9	0,011
732,3	0,01
732,8	0,01
733,2	0,01
733,6	0,01
734,1	0,01
734,5	0,01
734,9	0,01
735,4	0,01
735,8	0,01
736,3	0,01
736,7	0,01
737,1	0,01
737,6	0,01
738	0,011
738,4	0,01
738,9	0,01
739,3	0,011
739,7	0,01
740,2	0,01
740,6	0,01
741,1	0,01
741,5	0,01
741,9	0,01
742,4	0,01
742,8	0,011
743,2	0,011
743,7	0,01
744,1	0,01
744,5	0,01
745	0,01
745,4	0,01
745,8	0,01
746,3	0,01
746,7	0,01
747,2	0,01
747,6	0,01
748	0,01
748,5	0,01
748,9	0,01
749,3	0,01
749,8	0,01
750,2	0,01
750,6	0,01
751,1	0,01
751,5	0,01
751,9	0,01
752,4	0,01
752,8	0,01
753,3	0,01
753,7	0,009
754,1	0,01
754,6	0,01
755	0,009
755,4	0,009
755,9	0,009
756,3	0,009
756,7	0,01
757,2	0,01
757,6	0,01
758	0,01
758,5	0,01
758,9	0,01
759,3	0,01
759,8	0,01
760,2	0,01
760,6	0,01
761,1	0,01
761,5	0,009
761,9	0,009
762,4	0,009
762,8	0,009
763,3	0,009
763,7	0,009
764,1	0,009
764,6	0,01
765	0,01
765,4	0,01
765,9	0,01
766,3	0,01
766,7	0,01
767,2	0,011
767,6	0,01
768	0,01
768,5	0,01
768,9	0,01
769,3	0,009
769,8	0,009
770,2	0,009
770,6	0,009
771,1	0,009
771,5	0,009
771,9	0,008
772,4	0,008
772,8	0,008
773,2	0,008
773,7	0,008
774,1	0,008
774,5	0,008
775	0,008
775,4	0,008
775,8	0,009
776,3	0,009
776,7	0,008
777,1	0,008
777,6	0,008
778	0,008
778,4	0,008
778,9	0,008
779,3	0,008
779,7	0,008
780,2	0,008
780,6	0,009
781	0,009
781,5	0,009
781,9	0,009
782,3	0,009
782,8	0,009
783,2	0,009
783,6	0,009
784,1	0,008
784,5	0,009
784,9	0,009
785,4	0,009
785,8	0,009
786,2	0,009
786,7	0,009
787,1	0,009
787,5	0,009
788	0,01
788,4	0,01
788,8	0,01
789,3	0,011
789,7	0,011
790,1	0,011
790,6	0,011
791	0,01
791,4	0,01
791,9	0,009
792,3	0,009
792,7	0,009
793,2	0,009
793,6	0,009
794	0,01
794,5	0,01
794,9	0,011
795,3	0,011
795,8	0,011
796,2	0,011
796,6	0,011
797,1	0,011
797,5	0,011
797,9	0,011
798,4	0,01
798,8	0,01
799,2	0,009
799,7	0,009
800,1	0,009
800,5	0,009
801	0,009
801,4	0,009
801,8	0,01
802,2	0,01
802,7	0,01
803,1	0,01
803,5	0,01
804	0,01
804,4	0,011
804,8	0,01
805,3	0,01
805,7	0,01
806,1	0,01
806,6	0,01
807	0,01
807,4	0,01
807,9	0,01
808,3	0,01
808,7	0,01
809,2	0,01
809,6	0,011
810	0,011
810,4	0,011
810,9	0,011
811,3	0,01
811,7	0,011
812,2	0,01
812,6	0,01
813	0,01
813,5	0,009
813,9	0,009
814,3	0,01
814,8	0,009
815,2	0,009
815,6	0,009
816,1	0,009
816,5	0,009
816,9	0,008
817,3	0,008
817,8	0,008
818,2	0,009
818,6	0,009
819,1	0,009
819,5	0,009
819,9	0,009
820,4	0,009
820,8	0,009
821,2	0,008
821,7	0,008
822,1	0,008
822,5	0,008
822,9	0,008
823,4	0,008
823,8	0,009
824,2	0,009
824,7	0,009
825,1	0,01
825,5	0,01
826	0,01
826,4	0,01
826,8	0,009
827,3	0,009
827,7	0,009
828,1	0,009
828,5	0,009
829	0,009
829,4	0,009
829,8	0,009
830,3	0,009
830,7	0,009
831,1	0,009
831,6	0,01
832	0,009
832,4	0,01
832,8	0,01
833,3	0,01
833,7	0,01
834,1	0,01
834,6	0,009
835	0,009
835,4	0,009
835,8	0,009
836,3	0,009
836,7	0,009
837,1	0,008
837,6	0,008
838	0,008
838,4	0,009
838,9	0,009
839,3	0,009
839,7	0,009
840,1	0,009
840,6	0,009
841	0,009
841,4	0,009
841,9	0,009
842,3	0,009
842,7	0,009
843,1	0,009
843,6	0,01
844	0,01
844,4	0,01
844,9	0,01
845,3	0,01
845,7	0,01
846,2	0,01
846,6	0,009
847	0,009
847,4	0,009
847,9	0,009
848,3	0,009
848,7	0,009
849,2	0,008
849,6	0,009
850	0,009
850,4	0,009
850,9	0,009
851,3	0,009
851,7	0,01
852,2	0,01
852,6	0,01
853	0,01
853,4	0,01
853,9	0,01
854,3	0,01
854,7	0,009
855,2	0,009
855,6	0,009
856	0,009
856,4	0,009
856,9	0,01
857,3	0,01
857,7	0,01
858,2	0,01
858,6	0,01
859	0,01
859,4	0,01
859,9	0,01
860,3	0,01
860,7	0,01
861,1	0,01
861,6	0,009
862	0,009
862,4	0,009
862,9	0,009
863,3	0,008
863,7	0,009
864,1	0,009
864,6	0,009
865	0,01
865,4	0,01
865,9	0,01
866,3	0,01
866,7	0,01
867,1	0,01
867,6	0,01
868	0,009
868,4	0,009
868,8	0,01
869,3	0,009
869,7	0,009
870,1	0,009
870,6	0,009
871	0,009
871,4	0,009
871,8	0,009
872,3	0,009
872,7	0,009
873,1	0,009
873,5	0,009
874	0,009
874,4	0,009
874,8	0,009
875,3	0,009
875,7	0,009
876,1	0,009
876,5	0,009
877	0,009
877,4	0,009
877,8	0,009
878,2	0,009
878,7	0,009
879,1	0,009
879,5	0,009
879,9	0,009
880,4	0,009
880,8	0,009
881,2	0,009
881,7	0,009
882,1	0,01
882,5	0,011
882,9	0,011
883,4	0,01
883,8	0,01
884,2	0,01
884,6	0,01
885,1	0,009
885,5	0,009
885,9	0,009
886,3	0,009
886,8	0,009
887,2	0,01
887,6	0,01
888	0,01
888,5	0,01
888,9	0,01
889,3	0,011
889,8	0,011
890,2	0,011
890,6	0,01
891	0,01
891,5	0,01
891,9	0,01
892,3	0,01
892,7	0,009
893,2	0,009
893,6	0,01
894	0,009
894,4	0,009
894,9	0,009
895,3	0,009
895,7	0,009
896,1	0,009
896,6	0,009
897	0,009
897,4	0,009
897,8	0,009
898,3	0,009
898,7	0,009
899,1	0,009
899,5	0,009
900	0,009
900,4	0,01
900,8	0,01
901,2	0,01
901,7	0,01
902,1	0,01
902,5	0,01
902,9	0,01
903,4	0,01
903,8	0,01
904,2	0,01
904,6	0,01
905,1	0,01
905,5	0,01
905,9	0,011
906,3	0,011
906,8	0,011
907,2	0,011
907,6	0,01
908	0,01
908,5	0,01
908,9	0,01
909,3	0,01
909,7	0,01
910,2	0,01
910,6	0,011
911	0,01
911,4	0,01
911,9	0,01
912,3	0,01
912,7	0,01
913,1	0,01
913,6	0,009
914	0,009
914,4	0,009
914,8	0,009
915,3	0,009
915,7	0,009
916,1	0,009
916,5	0,008
916,9	0,008
917,4	0,008
917,8	0,008
918,2	0,008
918,6	0,007
919,1	0,007
919,5	0,008
919,9	0,007
920,3	0,008
920,8	0,008
921,2	0,008
921,6	0,009
922	0,009
922,5	0,009
922,9	0,01
923,3	0,01
923,7	0,009
924,2	0,009
924,6	0,009
925	0,008
925,4	0,008
925,8	0,008
926,3	0,008
926,7	0,008
927,1	0,008
927,5	0,008
928	0,009
928,4	0,009
928,8	0,009
929,2	0,009
929,7	0,009
930,1	0,009
930,5	0,01
930,9	0,01
931,3	0,01
931,8	0,01
932,2	0,009
932,6	0,009
933	0,01
933,5	0,01
933,9	0,01
934,3	0,01
934,7	0,01
935,2	0,01
935,6	0,009
936	0,009
936,4	0,009
936,8	0,009
937,3	0,008
937,7	0,008
938,1	0,008
938,5	0,008
939	0,008
939,4	0,007
939,8	0,007
940,2	0,007
940,6	0,007
941,1	0,006
941,5	0,007
941,9	0,007
942,3	0,007
942,8	0,007
943,2	0,007
943,6	0,007
944	0,007
944,4	0,007
944,9	0,008
945,3	0,008
945,7	0,008
946,1	0,008
946,6	0,008
947	0,008
947,4	0,008
947,8	0,008
948,2	0,008
948,7	0,009
949,1	0,009
949,5	0,009
949,9	0,009
950,3	0,01
950,8	0,01
951,2	0,01
951,6	0,01
952	0,009
952,5	0,01
952,9	0,01
953,3	0,01
953,7	0,01
954,1	0,01
954,6	0,009
955	0,009
955,4	0,009
955,8	0,009
956,2	0,009
956,7	0,009
957,1	0,009
957,5	0,009
957,9	0,009
958,3	0,009
958,8	0,008
959,2	0,008
959,6	0,008
960	0,008
960,5	0,008
960,9	0,008
961,3	0,008
961,7	0,009
962,1	0,009
962,6	0,01
963	0,01
963,4	0,01
963,8	0,011
964,2	0,011
964,7	0,011
965,1	0,011
965,5	0,011
965,9	0,011
966,3	0,01
966,8	0,01
967,2	0,01
967,6	0,01
968	0,01
968,4	0,01
968,9	0,01
969,3	0,01
969,7	0,01
970,1	0,01
970,5	0,009
971	0,009
971,4	0,009
971,8	0,008
972,2	0,007
972,6	0,007
973,1	0,007
973,5	0,007
973,9	0,007
974,3	0,008
974,7	0,008
975,2	0,008
975,6	0,008
976	0,008
976,4	0,009
976,8	0,01
977,3	0,009
977,7	0,009
978,1	0,009
978,5	0,009
978,9	0,009
979,4	0,008
979,8	0,008
980,2	0,009
980,6	0,008
981	0,009
981,5	0,009
981,9	0,01
982,3	0,01
982,7	0,01
983,1	0,009
983,6	0,009
984	0,01
984,4	0,01
984,8	0,01
985,2	0,011
985,6	0,011
986,1	0,011
986,5	0,011
986,9	0,011
987,3	0,011
987,7	0,011
988,2	0,011
988,6	0,012
989	0,011
989,4	0,01
989,8	0,01
990,3	0,01
990,7	0,009
991,1	0,009
991,5	0,009
991,9	0,01
992,3	0,01
992,8	0,01
993,2	0,01
993,6	0,01
994	0,011
994,4	0,01
994,9	0,01
995,3	0,01
995,7	0,01
996,1	0,01
996,5	0,01
996,9	0,009
997,4	0,01
997,8	0,009
998,2	0,01
998,6	0,01
999	0,01
999,5	0,01
999,9	0,01
1000,3	0,011
1000,7	0,011
1001,1	0,01
1001,5	0,01
1002	0,011
1002,4	0,011
1002,8	0,011
1003,2	0,011
1003,6	0,011
1004	0,011
1004,5	0,011
1004,9	0,011
1005,3	0,01
1005,7	0,01
1006,1	0,009
1006,6	0,009
1007	0,009
1007,4	0,008
1007,8	0,008
1008,2	0,008
1008,6	0,008
1009,1	0,008
1009,5	0,008
1009,9	0,008
1010,3	0,008
1010,7	0,009
1011,1	0,009
1011,6	0,009
1012	0,009
1012,4	0,01
1012,8	0,01
1013,2	0,01
1013,6	0,011
1014,1	0,011
1014,5	0,011
1014,9	0,011
1015,3	0,011
1015,7	0,011
1016,1	0,011
1016,6	0,011
1017	0,011
1017,4	0,011
1017,8	0,011
1018,2	0,011
1018,6	0,011
1019,1	0,011
1019,5	0,011
1019,9	0,01
1020,3	0,009
1020,7	0,009
1021,1	0,01
1021,6	0,01
1022	0,011
1022,4	0,012
1022,8	0,012
1023,2	0,014
1023,6	0,015
1024,1	0,014
1024,5	0,014
1024,9	0,014
1025,3	0,013
1025,7	0,013
1026,1	0,012
1026,6	0,011
1027	0,011
1027,4	0,011
1027,8	0,011
1028,2	0,011
1028,6	0,01
1029	0,011
1029,5	0,01
1029,9	0,01
1030,3	0,011
1030,7	0,011
1031,1	0,011
1031,5	0,012
1032	0,012
1032,4	0,012
1032,8	0,012
1033,2	0,012
1033,6	0,012
1034	0,011
1034,4	0,01
1034,9	0,01
1035,3	0,01
1035,7	0,01
1036,1	0,009
1036,5	0,01
1036,9	0,01
1037,4	0,011
1037,8	0,01
1038,2	0,011
1038,6	0,011
1039	0,01
1039,4	0,01
1039,8	0,01
1040,3	0,01
1040,7	0,011
1041,1	0,01
1041,5	0,011
1041,9	0,012
1042,3	0,012
1042,7	0,012
1043,2	0,012
1043,6	0,013
1044	0,012
1044,4	0,012
1044,8	0,012
1045,2	0,011
1045,6	0,011
1046,1	0,011
1046,5	0,011
1046,9	0,011
1047,3	0,01
1047,7	0,01
1048,1	0,009
1048,5	0,009
1049	0,009
1049,4	0,01
1049,8	0,01
1050,2	0,01
1050,6	0,011
1051	0,011
1051,4	0,012
1051,9	0,013
1052,3	0,012
1052,7	0,013
1053,1	0,013
1053,5	0,013
1053,9	0,013
1054,3	0,013
1054,8	0,012
1055,2	0,013
1055,6	0,013
1056	0,012
1056,4	0,012
1056,8	0,012
1057,2	0,012
1057,6	0,013
1058,1	0,013
1058,5	0,013
1058,9	0,013
1059,3	0,014
1059,7	0,014
1060,1	0,013
1060,5	0,013
1061	0,013
1061,4	0,012
1061,8	0,013
1062,2	0,013
1062,6	0,013
1063	0,015
1063,4	0,015
1063,8	0,014
1064,3	0,014
1064,7	0,012
1065,1	0,013
1065,5	0,012
1065,9	0,01
1066,3	0,011
1066,7	0,011
1067,1	0,012
1067,6	0,013
1068	0,012
1068,4	0,012
1068,8	0,012
1069,2	0,012
1069,6	0,012
1070	0,012
1070,4	0,012
1070,9	0,012
1071,3	0,013
1071,7	0,013
1072,1	0,012
1072,5	0,012
1072,9	0,012
1073,3	0,011
1073,7	0,012
1074,2	0,012
1074,6	0,013
1075	0,013
1075,4	0,013
1075,8	0,013
1076,2	0,013
1076,6	0,013
1077	0,012
1077,5	0,012
1077,9	0,012
1078,3	0,012
1078,7	0,014
1079,1	0,014
1079,5	0,014
1079,9	0,015
1080,3	0,015
1080,7	0,016
1081,2	0,017
1081,6	0,016
1082	0,015
1082,4	0,016
1082,8	0,016
1083,2	0,017
1083,6	0,015
1084	0,014
1084,5	0,012
1084,9	0,015
1085,3	0,015
1085,7	0,014
1086,1	0,013
1086,5	0,014
1086,9	0,015
1087,3	0,017
1087,7	0,018
1088,2	0,017
1088,6	0,019
1089	0,02
1089,4	0,021
1089,8	0,023
1090,2	0,021
1090,6	0,02
1091	0,021
1091,4	0,019
1091,9	0,018
1092,3	0,018
1092,7	0,017
1093,1	0,02
1093,5	0,019
1093,9	0,021
1094,3	0,022
1094,7	0,022
1095,1	0,022
1095,5	0,023
1096	0,021
1096,4	0,019
1096,8	0,015
1097,2	0,021
1097,6	0,028
1098	0,028
1098,4	0,025
1098,8	0,028
1099,2	0,037
1099,6	0,048
1100,1	0,044
1100,5	0,041
1100,9	0,047
1101,3	0,053
1101,7	0,052
1102,1	0,05
1102,5	0,043
1102,9	0,042
1103,3	0,035
1103,7	0,04
1104,2	0,042
1104,6	0,043
1105	0,036
1105,4	0,045
1105,8	0,054
1106,2	0,064
1106,6	0,058
1107	0,069
1107,4	0,071
1107,8	0,116
1108,3	0,311
