Data from Absorbance_146.txt Node
Date: Fri Nov 13 19:43:52 MSK 2020
User: vat
Spectrometer: MAYP114033
Trigger mode: 0
Integration Time (sec): 8,000000E-3
Scans to average: 10
Electric dark correction enabled: true
Nonlinearity correction enabled: false
Boxcar width: 3
XAxis mode: Wavelengths
Number of Pixels in Spectrum: 2068
>>>>>Begin Spectral Data<<<<<
199,4	-0,021
199,9	0,197
200,4	0,089
200,8	0,065
201,3	0,061
201,8	0,063
202,2	0,068
202,7	0,082
203,2	0,064
203,6	0,068
204,1	0,072
204,6	0,069
205	0,065
205,5	0,06
206	0,053
206,4	0,047
206,9	0,041
207,4	0,037
207,8	0,035
208,3	0,042
208,8	0,033
209,2	0,04
209,7	0,044
210,2	0,041
210,6	0,039
211,1	0,04
211,5	0,033
212	0,047
212,5	0,03
212,9	0,04
213,4	0,051
213,9	0,056
214,3	0,068
214,8	0,075
215,3	0,061
215,7	0,069
216,2	0,055
216,7	0,052
217,1	0,043
217,6	0,028
218,1	0,01
218,5	0,014
219	0,004
219,5	0,016
219,9	0,011
220,4	0,034
220,9	0,05
221,3	0,052
221,8	0,059
222,3	0,085
222,7	0,079
223,2	0,09
223,6	0,076
224,1	0,071
224,6	0,088
225	0,09
225,5	0,071
226	0,071
226,4	0,067
226,9	0,073
227,4	0,083
227,8	0,069
228,3	0,07
228,8	0,082
229,2	0,083
229,7	0,086
230,2	0,07
230,6	0,054
231,1	0,062
231,5	0,055
232	0,055
232,5	0,056
232,9	0,065
233,4	0,076
233,9	0,071
234,3	0,073
234,8	0,084
235,3	0,073
235,7	0,085
236,2	0,088
236,7	0,097
237,1	0,112
237,6	0,11
238,1	0,11
238,5	0,124
239	0,123
239,4	0,119
239,9	0,113
240,4	0,128
240,8	0,144
241,3	0,145
241,8	0,153
242,2	0,148
242,7	0,155
243,2	0,157
243,6	0,142
244,1	0,144
244,6	0,144
245	0,149
245,5	0,157
245,9	0,16
246,4	0,167
246,9	0,169
247,3	0,166
247,8	0,174
248,3	0,182
248,7	0,194
249,2	0,206
249,7	0,218
250,1	0,227
250,6	0,233
251	0,233
251,5	0,232
252	0,232
252,4	0,235
252,9	0,236
253,4	0,239
253,8	0,244
254,3	0,251
254,8	0,258
255,2	0,262
255,7	0,266
256,1	0,27
256,6	0,275
257,1	0,28
257,5	0,285
258	0,29
258,5	0,296
258,9	0,304
259,4	0,313
259,9	0,32
260,3	0,329
260,8	0,339
261,2	0,347
261,7	0,358
262,2	0,368
262,6	0,378
263,1	0,387
263,6	0,396
264	0,405
264,5	0,415
264,9	0,424
265,4	0,434
265,9	0,442
266,3	0,453
266,8	0,464
267,3	0,474
267,7	0,484
268,2	0,493
268,7	0,503
269,1	0,513
269,6	0,524
270	0,534
270,5	0,544
271	0,553
271,4	0,562
271,9	0,573
272,4	0,582
272,8	0,591
273,3	0,6
273,7	0,61
274,2	0,619
274,7	0,628
275,1	0,636
275,6	0,644
276,1	0,651
276,5	0,657
277	0,664
277,4	0,67
277,9	0,675
278,4	0,681
278,8	0,686
279,3	0,69
279,8	0,694
280,2	0,698
280,7	0,701
281,1	0,704
281,6	0,706
282,1	0,707
282,5	0,708
283	0,709
283,4	0,708
283,9	0,708
284,4	0,705
284,8	0,703
285,3	0,699
285,8	0,695
286,2	0,691
286,7	0,686
287,1	0,68
287,6	0,674
288,1	0,667
288,5	0,661
289	0,653
289,5	0,644
289,9	0,635
290,4	0,626
290,8	0,616
291,3	0,606
291,8	0,594
292,2	0,582
292,7	0,571
293,1	0,559
293,6	0,546
294,1	0,533
294,5	0,52
295	0,507
295,5	0,493
295,9	0,479
296,4	0,466
296,8	0,452
297,3	0,438
297,8	0,424
298,2	0,41
298,7	0,395
299,1	0,381
299,6	0,366
300,1	0,353
300,5	0,34
301	0,326
301,5	0,313
301,9	0,301
302,4	0,288
302,8	0,276
303,3	0,264
303,8	0,253
304,2	0,241
304,7	0,231
305,1	0,222
305,6	0,212
306,1	0,203
306,5	0,194
307	0,185
307,4	0,177
307,9	0,17
308,4	0,162
308,8	0,155
309,3	0,149
309,8	0,143
310,2	0,137
310,7	0,131
311,1	0,125
311,6	0,12
312,1	0,116
312,5	0,111
313	0,107
313,4	0,102
313,9	0,098
314,4	0,094
314,8	0,09
315,3	0,087
315,7	0,084
316,2	0,081
316,7	0,079
317,1	0,077
317,6	0,075
318	0,072
318,5	0,07
319	0,068
319,4	0,067
319,9	0,065
320,3	0,063
320,8	0,062
321,3	0,061
321,7	0,059
322,2	0,059
322,6	0,058
323,1	0,057
323,6	0,056
324	0,055
324,5	0,054
324,9	0,054
325,4	0,053
325,9	0,052
326,3	0,051
326,8	0,051
327,2	0,05
327,7	0,05
328,2	0,05
328,6	0,05
329,1	0,049
329,5	0,048
330	0,048
330,5	0,048
330,9	0,047
331,4	0,047
331,8	0,046
332,3	0,046
332,8	0,046
333,2	0,045
333,7	0,045
334,1	0,044
334,6	0,044
335,1	0,044
335,5	0,044
336	0,044
336,4	0,044
336,9	0,044
337,4	0,044
337,8	0,043
338,3	0,043
338,7	0,043
339,2	0,043
339,7	0,042
340,1	0,042
340,6	0,041
341	0,041
341,5	0,041
342	0,041
342,4	0,041
342,9	0,041
343,3	0,041
343,8	0,04
344,2	0,04
344,7	0,04
345,2	0,04
345,6	0,039
346,1	0,04
346,5	0,039
347	0,039
347,5	0,04
347,9	0,04
348,4	0,04
348,8	0,039
349,3	0,039
349,8	0,038
350,2	0,038
350,7	0,038
351,1	0,038
351,6	0,037
352	0,038
352,5	0,038
353	0,038
353,4	0,038
353,9	0,037
354,3	0,037
354,8	0,037
355,3	0,038
355,7	0,037
356,2	0,037
356,6	0,036
357,1	0,036
357,5	0,036
358	0,036
358,5	0,035
358,9	0,035
359,4	0,035
359,8	0,035
360,3	0,035
360,8	0,035
361,2	0,036
361,7	0,036
362,1	0,036
362,6	0,036
363	0,036
363,5	0,035
364	0,035
364,4	0,034
364,9	0,034
365,3	0,034
365,8	0,034
366,3	0,034
366,7	0,034
367,2	0,034
367,6	0,034
368,1	0,034
368,5	0,033
369	0,033
369,5	0,033
369,9	0,033
370,4	0,033
370,8	0,033
371,3	0,033
371,7	0,033
372,2	0,033
372,7	0,033
373,1	0,032
373,6	0,033
374	0,033
374,5	0,033
374,9	0,032
375,4	0,033
375,9	0,033
376,3	0,032
376,8	0,032
377,2	0,032
377,7	0,032
378,2	0,032
378,6	0,031
379,1	0,031
379,5	0,032
380	0,031
380,4	0,031
380,9	0,031
381,4	0,03
381,8	0,03
382,3	0,03
382,7	0,03
383,2	0,03
383,6	0,03
384,1	0,03
384,6	0,03
385	0,03
385,5	0,03
385,9	0,03
386,4	0,03
386,8	0,03
387,3	0,03
387,7	0,031
388,2	0,031
388,7	0,031
389,1	0,031
389,6	0,031
390	0,031
390,5	0,031
390,9	0,03
391,4	0,03
391,9	0,03
392,3	0,03
392,8	0,03
393,2	0,03
393,7	0,029
394,1	0,029
394,6	0,029
395,1	0,029
395,5	0,029
396	0,029
396,4	0,029
396,9	0,028
397,3	0,028
397,8	0,029
398,2	0,028
398,7	0,029
399,2	0,029
399,6	0,028
400,1	0,028
400,5	0,028
401	0,028
401,4	0,028
401,9	0,027
402,4	0,027
402,8	0,027
403,3	0,027
403,7	0,027
404,2	0,027
404,6	0,027
405,1	0,027
405,5	0,027
406	0,026
406,5	0,026
406,9	0,026
407,4	0,026
407,8	0,026
408,3	0,026
408,7	0,026
409,2	0,026
409,6	0,026
410,1	0,026
410,6	0,026
411	0,026
411,5	0,026
411,9	0,026
412,4	0,026
412,8	0,026
413,3	0,026
413,7	0,026
414,2	0,026
414,7	0,027
415,1	0,027
415,6	0,027
416	0,027
416,5	0,027
416,9	0,027
417,4	0,027
417,8	0,027
418,3	0,027
418,8	0,026
419,2	0,026
419,7	0,026
420,1	0,026
420,6	0,026
421	0,026
421,5	0,026
421,9	0,026
422,4	0,026
422,8	0,026
423,3	0,026
423,8	0,026
424,2	0,025
424,7	0,025
425,1	0,025
425,6	0,025
426	0,025
426,5	0,025
426,9	0,025
427,4	0,025
427,9	0,025
428,3	0,025
428,8	0,026
429,2	0,025
429,7	0,025
430,1	0,026
430,6	0,025
431	0,025
431,5	0,026
431,9	0,026
432,4	0,026
432,8	0,026
433,3	0,025
433,8	0,026
434,2	0,026
434,7	0,025
435,1	0,025
435,6	0,025
436	0,025
436,5	0,024
436,9	0,024
437,4	0,023
437,8	0,023
438,3	0,023
438,8	0,023
439,2	0,023
439,7	0,023
440,1	0,024
440,6	0,024
441	0,024
441,5	0,024
441,9	0,024
442,4	0,024
442,8	0,024
443,3	0,024
443,7	0,024
444,2	0,024
444,7	0,025
445,1	0,025
445,6	0,025
446	0,025
446,5	0,025
446,9	0,025
447,4	0,025
447,8	0,024
448,3	0,024
448,7	0,024
449,2	0,023
449,6	0,024
450,1	0,023
450,6	0,023
451	0,023
451,5	0,024
451,9	0,024
452,4	0,024
452,8	0,024
453,3	0,025
453,7	0,024
454,2	0,024
454,6	0,024
455,1	0,024
455,5	0,024
456	0,023
456,4	0,023
456,9	0,023
457,3	0,023
457,8	0,022
458,3	0,023
458,7	0,022
459,2	0,023
459,6	0,023
460,1	0,023
460,5	0,023
461	0,023
461,4	0,023
461,9	0,024
462,3	0,023
462,8	0,023
463,2	0,023
463,7	0,023
464,1	0,023
464,6	0,023
465	0,023
465,5	0,023
466	0,023
466,4	0,023
466,9	0,023
467,3	0,023
467,8	0,023
468,2	0,023
468,7	0,023
469,1	0,023
469,6	0,023
470	0,023
470,5	0,022
470,9	0,022
471,4	0,023
471,8	0,023
472,3	0,023
472,7	0,023
473,2	0,024
473,6	0,023
474,1	0,023
474,5	0,023
475	0,023
475,4	0,023
475,9	0,022
476,4	0,022
476,8	0,022
477,3	0,022
477,7	0,022
478,2	0,022
478,6	0,022
479,1	0,022
479,5	0,022
480	0,022
480,4	0,022
480,9	0,022
481,3	0,022
481,8	0,022
482,2	0,022
482,7	0,022
483,1	0,022
483,6	0,022
484	0,022
484,5	0,021
484,9	0,022
485,4	0,022
485,8	0,022
486,3	0,022
486,7	0,022
487,2	0,022
487,6	0,022
488,1	0,021
488,5	0,02
489	0,021
489,4	0,021
489,9	0,02
490,4	0,02
490,8	0,021
491,3	0,021
491,7	0,021
492,2	0,021
492,6	0,021
493,1	0,022
493,5	0,022
494	0,022
494,4	0,022
494,9	0,021
495,3	0,021
495,8	0,02
496,2	0,021
496,7	0,02
497,1	0,021
497,6	0,021
498	0,021
498,5	0,021
498,9	0,021
499,4	0,021
499,8	0,021
500,3	0,02
500,7	0,02
501,2	0,02
501,6	0,02
502,1	0,02
502,5	0,02
503	0,02
503,4	0,02
503,9	0,02
504,3	0,021
504,8	0,021
505,2	0,021
505,7	0,021
506,1	0,02
506,6	0,02
507	0,02
507,5	0,02
507,9	0,02
508,4	0,02
508,8	0,02
509,3	0,02
509,7	0,02
510,2	0,02
510,6	0,02
511,1	0,02
511,5	0,02
512	0,02
512,4	0,02
512,9	0,02
513,3	0,02
513,8	0,019
514,2	0,02
514,7	0,02
515,1	0,02
515,6	0,02
516	0,02
516,5	0,02
516,9	0,02
517,4	0,019
517,8	0,019
518,3	0,019
518,7	0,019
519,2	0,019
519,6	0,019
520,1	0,019
520,5	0,019
521	0,019
521,4	0,019
521,9	0,019
522,3	0,019
522,8	0,019
523,2	0,018
523,7	0,018
524,1	0,018
524,6	0,018
525	0,018
525,5	0,018
525,9	0,018
526,4	0,018
526,8	0,019
527,3	0,019
527,7	0,019
528,2	0,018
528,6	0,018
529,1	0,018
529,5	0,018
530	0,018
530,4	0,017
530,9	0,018
531,3	0,018
531,8	0,018
532,2	0,018
532,6	0,018
533,1	0,018
533,5	0,018
534	0,017
534,4	0,017
534,9	0,017
535,3	0,017
535,8	0,018
536,2	0,018
536,7	0,018
537,1	0,019
537,6	0,019
538	0,019
538,5	0,019
538,9	0,019
539,4	0,019
539,8	0,019
540,3	0,018
540,7	0,018
541,2	0,018
541,6	0,018
542,1	0,018
542,5	0,018
543	0,017
543,4	0,017
543,9	0,018
544,3	0,018
544,8	0,018
545,2	0,018
545,7	0,018
546,1	0,018
546,5	0,018
547	0,018
547,4	0,018
547,9	0,018
548,3	0,018
548,8	0,018
549,2	0,018
549,7	0,017
550,1	0,017
550,6	0,018
551	0,018
551,5	0,018
551,9	0,018
552,4	0,018
552,8	0,017
553,3	0,017
553,7	0,017
554,2	0,017
554,6	0,017
555,1	0,017
555,5	0,017
555,9	0,017
556,4	0,017
556,8	0,017
557,3	0,018
557,7	0,018
558,2	0,018
558,6	0,018
559,1	0,017
559,5	0,017
560	0,017
560,4	0,017
560,9	0,017
561,3	0,016
561,8	0,017
562,2	0,017
562,7	0,017
563,1	0,017
563,6	0,017
564	0,017
564,4	0,017
564,9	0,017
565,3	0,016
565,8	0,016
566,2	0,016
566,7	0,016
567,1	0,016
567,6	0,016
568	0,016
568,5	0,016
568,9	0,017
569,4	0,017
569,8	0,017
570,3	0,017
570,7	0,017
571,1	0,017
571,6	0,017
572	0,016
572,5	0,017
572,9	0,017
573,4	0,017
573,8	0,017
574,3	0,017
574,7	0,017
575,2	0,017
575,6	0,017
576,1	0,017
576,5	0,017
576,9	0,017
577,4	0,017
577,8	0,017
578,3	0,017
578,7	0,017
579,2	0,017
579,6	0,017
580,1	0,017
580,5	0,017
581	0,017
581,4	0,017
581,9	0,017
582,3	0,017
582,7	0,017
583,2	0,016
583,6	0,016
584,1	0,016
584,5	0,016
585	0,016
585,4	0,017
585,9	0,017
586,3	0,017
586,8	0,017
587,2	0,017
587,6	0,017
588,1	0,017
588,5	0,017
589	0,017
589,4	0,017
589,9	0,017
590,3	0,017
590,8	0,017
591,2	0,017
591,7	0,017
592,1	0,016
592,5	0,016
593	0,016
593,4	0,016
593,9	0,016
594,3	0,016
594,8	0,016
595,2	0,016
595,7	0,016
596,1	0,016
596,6	0,016
597	0,016
597,4	0,016
597,9	0,016
598,3	0,016
598,8	0,016
599,2	0,016
599,7	0,016
600,1	0,016
600,6	0,016
601	0,015
601,4	0,015
601,9	0,015
602,3	0,015
602,8	0,015
603,2	0,015
603,7	0,015
604,1	0,015
604,6	0,015
605	0,015
605,4	0,015
605,9	0,015
606,3	0,015
606,8	0,015
607,2	0,015
607,7	0,015
608,1	0,015
608,6	0,015
609	0,014
609,4	0,014
609,9	0,014
610,3	0,015
610,8	0,015
611,2	0,015
611,7	0,015
612,1	0,015
612,6	0,016
613	0,016
613,4	0,016
613,9	0,016
614,3	0,016
614,8	0,016
615,2	0,015
615,7	0,015
616,1	0,015
616,6	0,015
617	0,015
617,4	0,015
617,9	0,015
618,3	0,015
618,8	0,015
619,2	0,015
619,7	0,015
620,1	0,015
620,5	0,015
621	0,015
621,4	0,015
621,9	0,015
622,3	0,015
622,8	0,015
623,2	0,015
623,6	0,015
624,1	0,015
624,5	0,014
625	0,014
625,4	0,014
625,9	0,015
626,3	0,015
626,8	0,014
627,2	0,014
627,6	0,015
628,1	0,015
628,5	0,015
629	0,015
629,4	0,015
629,9	0,015
630,3	0,015
630,7	0,015
631,2	0,014
631,6	0,014
632,1	0,014
632,5	0,014
633	0,014
633,4	0,014
633,8	0,014
634,3	0,015
634,7	0,015
635,2	0,015
635,6	0,015
636,1	0,015
636,5	0,015
636,9	0,014
637,4	0,014
637,8	0,014
638,3	0,014
638,7	0,013
639,2	0,013
639,6	0,013
640	0,014
640,5	0,014
640,9	0,014
641,4	0,015
641,8	0,014
642,2	0,014
642,7	0,015
643,1	0,014
643,6	0,014
644	0,014
644,5	0,014
644,9	0,014
645,3	0,014
645,8	0,014
646,2	0,014
646,7	0,014
647,1	0,014
647,6	0,014
648	0,014
648,4	0,014
648,9	0,014
649,3	0,014
649,8	0,013
650,2	0,014
650,6	0,013
651,1	0,013
651,5	0,014
652	0,014
652,4	0,014
652,9	0,014
653,3	0,014
653,7	0,013
654,2	0,009
654,6	0,006
655,1	0,004
655,5	0,006
655,9	0,006
656,4	0,006
656,8	0,005
657,3	0,007
657,7	0,01
658,2	0,015
658,6	0,014
659	0,014
659,5	0,014
659,9	0,013
660,4	0,013
660,8	0,013
661,2	0,013
661,7	0,013
662,1	0,013
662,6	0,013
663	0,013
663,4	0,013
663,9	0,013
664,3	0,013
664,8	0,013
665,2	0,013
665,6	0,013
666,1	0,013
666,5	0,013
667	0,013
667,4	0,013
667,9	0,013
668,3	0,013
668,7	0,013
669,2	0,013
669,6	0,012
670,1	0,012
670,5	0,013
670,9	0,013
671,4	0,013
671,8	0,014
672,3	0,013
672,7	0,014
673,1	0,013
673,6	0,013
674	0,013
674,5	0,013
674,9	0,012
675,3	0,013
675,8	0,013
676,2	0,013
676,7	0,013
677,1	0,014
677,5	0,014
678	0,014
678,4	0,014
678,9	0,013
679,3	0,013
679,7	0,013
680,2	0,013
680,6	0,013
681,1	0,013
681,5	0,013
681,9	0,013
682,4	0,013
682,8	0,013
683,3	0,014
683,7	0,013
684,1	0,014
684,6	0,013
685	0,013
685,5	0,013
685,9	0,013
686,3	0,013
686,8	0,013
687,2	0,013
687,7	0,013
688,1	0,013
688,5	0,013
689	0,013
689,4	0,013
689,9	0,013
690,3	0,013
690,7	0,013
691,2	0,013
691,6	0,013
692	0,013
692,5	0,012
692,9	0,013
693,4	0,013
693,8	0,013
694,2	0,013
694,7	0,014
695,1	0,014
695,6	0,014
696	0,014
696,4	0,014
696,9	0,014
697,3	0,014
697,8	0,014
698,2	0,014
698,6	0,013
699,1	0,013
699,5	0,013
699,9	0,013
700,4	0,013
700,8	0,013
701,3	0,013
701,7	0,012
702,1	0,012
702,6	0,012
703	0,013
703,5	0,013
703,9	0,013
704,3	0,013
704,8	0,013
705,2	0,013
705,6	0,014
706,1	0,013
706,5	0,013
707	0,013
707,4	0,013
707,8	0,013
708,3	0,013
708,7	0,012
709,2	0,012
709,6	0,012
710	0,012
710,5	0,012
710,9	0,013
711,3	0,013
711,8	0,013
712,2	0,013
712,7	0,013
713,1	0,013
713,5	0,013
714	0,013
714,4	0,014
714,8	0,013
715,3	0,013
715,7	0,013
716,2	0,013
716,6	0,013
717	0,013
717,5	0,012
717,9	0,012
718,3	0,012
718,8	0,013
719,2	0,013
719,7	0,013
720,1	0,013
720,5	0,014
721	0,014
721,4	0,014
721,8	0,014
722,3	0,014
722,7	0,013
723,2	0,014
723,6	0,014
724	0,014
724,5	0,013
724,9	0,014
725,3	0,014
725,8	0,014
726,2	0,014
726,7	0,013
727,1	0,013
727,5	0,013
728	0,013
728,4	0,012
728,8	0,013
729,3	0,013
729,7	0,013
730,1	0,013
730,6	0,013
731	0,013
731,5	0,014
731,9	0,014
732,3	0,013
732,8	0,013
733,2	0,013
733,6	0,013
734,1	0,013
734,5	0,013
734,9	0,013
735,4	0,013
735,8	0,013
736,3	0,013
736,7	0,013
737,1	0,013
737,6	0,013
738	0,013
738,4	0,013
738,9	0,013
739,3	0,013
739,7	0,013
740,2	0,013
740,6	0,013
741,1	0,013
741,5	0,013
741,9	0,013
742,4	0,013
742,8	0,013
743,2	0,013
743,7	0,013
744,1	0,013
744,5	0,013
745	0,013
745,4	0,013
745,8	0,013
746,3	0,013
746,7	0,013
747,2	0,013
747,6	0,012
748	0,012
748,5	0,012
748,9	0,013
749,3	0,013
749,8	0,013
750,2	0,013
750,6	0,013
751,1	0,013
751,5	0,013
751,9	0,013
752,4	0,013
752,8	0,013
753,3	0,013
753,7	0,013
754,1	0,013
754,6	0,013
755	0,012
755,4	0,012
755,9	0,012
756,3	0,012
756,7	0,012
757,2	0,012
757,6	0,012
758	0,013
758,5	0,013
758,9	0,013
759,3	0,013
759,8	0,013
760,2	0,013
760,6	0,013
761,1	0,013
761,5	0,013
761,9	0,013
762,4	0,013
762,8	0,013
763,3	0,013
763,7	0,013
764,1	0,013
764,6	0,013
765	0,013
765,4	0,013
765,9	0,013
766,3	0,013
766,7	0,013
767,2	0,013
767,6	0,013
768	0,013
768,5	0,013
768,9	0,013
769,3	0,013
769,8	0,013
770,2	0,012
770,6	0,012
771,1	0,012
771,5	0,012
771,9	0,011
772,4	0,012
772,8	0,011
773,2	0,012
773,7	0,012
774,1	0,012
774,5	0,012
775	0,012
775,4	0,012
775,8	0,012
776,3	0,011
776,7	0,011
777,1	0,011
777,6	0,011
778	0,011
778,4	0,011
778,9	0,011
779,3	0,012
779,7	0,012
780,2	0,012
780,6	0,012
781	0,012
781,5	0,012
781,9	0,012
782,3	0,012
782,8	0,012
783,2	0,012
783,6	0,011
784,1	0,011
784,5	0,011
784,9	0,011
785,4	0,011
785,8	0,011
786,2	0,011
786,7	0,011
787,1	0,012
787,5	0,012
788	0,013
788,4	0,013
788,8	0,014
789,3	0,014
789,7	0,013
790,1	0,013
790,6	0,013
791	0,012
791,4	0,012
791,9	0,012
792,3	0,012
792,7	0,012
793,2	0,013
793,6	0,013
794	0,013
794,5	0,013
794,9	0,013
795,3	0,014
795,8	0,013
796,2	0,013
796,6	0,013
797,1	0,013
797,5	0,013
797,9	0,012
798,4	0,012
798,8	0,012
799,2	0,012
799,7	0,012
800,1	0,012
800,5	0,012
801	0,013
801,4	0,013
801,8	0,013
802,2	0,013
802,7	0,013
803,1	0,013
803,5	0,013
804	0,013
804,4	0,013
804,8	0,013
805,3	0,012
805,7	0,012
806,1	0,012
806,6	0,012
807	0,012
807,4	0,012
807,9	0,013
808,3	0,013
808,7	0,013
809,2	0,013
809,6	0,013
810	0,014
810,4	0,014
810,9	0,013
811,3	0,013
811,7	0,013
812,2	0,013
812,6	0,012
813	0,012
813,5	0,012
813,9	0,012
814,3	0,012
814,8	0,012
815,2	0,012
815,6	0,011
816,1	0,011
816,5	0,011
816,9	0,011
817,3	0,011
817,8	0,011
818,2	0,011
818,6	0,011
819,1	0,012
819,5	0,012
819,9	0,012
820,4	0,012
820,8	0,011
821,2	0,011
821,7	0,011
822,1	0,011
822,5	0,011
822,9	0,011
823,4	0,012
823,8	0,012
824,2	0,012
824,7	0,012
825,1	0,013
825,5	0,013
826	0,013
826,4	0,012
826,8	0,012
827,3	0,012
827,7	0,012
828,1	0,011
828,5	0,011
829	0,012
829,4	0,011
829,8	0,012
830,3	0,012
830,7	0,012
831,1	0,012
831,6	0,012
832	0,012
832,4	0,012
832,8	0,012
833,3	0,012
833,7	0,013
834,1	0,013
834,6	0,013
835	0,013
835,4	0,013
835,8	0,012
836,3	0,012
836,7	0,011
837,1	0,011
837,6	0,011
838	0,011
838,4	0,011
838,9	0,011
839,3	0,011
839,7	0,011
840,1	0,011
840,6	0,011
841	0,011
841,4	0,011
841,9	0,011
842,3	0,011
842,7	0,012
843,1	0,012
843,6	0,012
844	0,012
844,4	0,012
844,9	0,012
845,3	0,012
845,7	0,012
846,2	0,012
846,6	0,012
847	0,011
847,4	0,011
847,9	0,011
848,3	0,011
848,7	0,011
849,2	0,011
849,6	0,011
850	0,011
850,4	0,011
850,9	0,011
851,3	0,011
851,7	0,011
852,2	0,012
852,6	0,012
853	0,012
853,4	0,012
853,9	0,012
854,3	0,012
854,7	0,012
855,2	0,012
855,6	0,012
856	0,012
856,4	0,012
856,9	0,012
857,3	0,012
857,7	0,012
858,2	0,012
858,6	0,012
859	0,012
859,4	0,012
859,9	0,012
860,3	0,013
860,7	0,013
861,1	0,013
861,6	0,013
862	0,012
862,4	0,012
862,9	0,012
863,3	0,012
863,7	0,013
864,1	0,013
864,6	0,013
865	0,014
865,4	0,014
865,9	0,013
866,3	0,013
866,7	0,013
867,1	0,013
867,6	0,013
868	0,013
868,4	0,013
868,8	0,013
869,3	0,013
869,7	0,013
870,1	0,013
870,6	0,013
871	0,013
871,4	0,012
871,8	0,012
872,3	0,012
872,7	0,012
873,1	0,012
873,5	0,012
874	0,012
874,4	0,012
874,8	0,012
875,3	0,011
875,7	0,011
876,1	0,012
876,5	0,011
877	0,012
877,4	0,012
877,8	0,012
878,2	0,012
878,7	0,012
879,1	0,011
879,5	0,011
879,9	0,011
880,4	0,011
880,8	0,011
881,2	0,011
881,7	0,011
882,1	0,012
882,5	0,012
882,9	0,012
883,4	0,012
883,8	0,013
884,2	0,012
884,6	0,012
885,1	0,012
885,5	0,012
885,9	0,011
886,3	0,011
886,8	0,011
887,2	0,011
887,6	0,011
888	0,011
888,5	0,011
888,9	0,011
889,3	0,012
889,8	0,012
890,2	0,012
890,6	0,012
891	0,012
891,5	0,012
891,9	0,012
892,3	0,012
892,7	0,012
893,2	0,012
893,6	0,012
894	0,012
894,4	0,012
894,9	0,012
895,3	0,012
895,7	0,012
896,1	0,012
896,6	0,012
897	0,012
897,4	0,012
897,8	0,011
898,3	0,011
898,7	0,011
899,1	0,011
899,5	0,011
900	0,012
900,4	0,012
900,8	0,012
901,2	0,012
901,7	0,012
902,1	0,012
902,5	0,012
902,9	0,013
903,4	0,013
903,8	0,013
904,2	0,012
904,6	0,012
905,1	0,012
905,5	0,012
905,9	0,012
906,3	0,012
906,8	0,012
907,2	0,012
907,6	0,013
908	0,013
908,5	0,013
908,9	0,013
909,3	0,013
909,7	0,013
910,2	0,013
910,6	0,013
911	0,013
911,4	0,013
911,9	0,013
912,3	0,013
912,7	0,012
913,1	0,012
913,6	0,012
914	0,012
914,4	0,011
914,8	0,011
915,3	0,011
915,7	0,012
916,1	0,012
916,5	0,012
916,9	0,011
917,4	0,011
917,8	0,011
918,2	0,011
918,6	0,01
919,1	0,011
919,5	0,011
919,9	0,011
920,3	0,011
920,8	0,011
921,2	0,011
921,6	0,012
922	0,012
922,5	0,012
922,9	0,013
923,3	0,013
923,7	0,013
924,2	0,012
924,6	0,012
925	0,012
925,4	0,011
925,8	0,011
926,3	0,011
926,7	0,011
927,1	0,011
927,5	0,012
928	0,012
928,4	0,012
928,8	0,013
929,2	0,012
929,7	0,013
930,1	0,013
930,5	0,013
930,9	0,012
931,3	0,012
931,8	0,012
932,2	0,012
932,6	0,012
933	0,012
933,5	0,013
933,9	0,013
934,3	0,013
934,7	0,013
935,2	0,012
935,6	0,013
936	0,012
936,4	0,012
936,8	0,011
937,3	0,011
937,7	0,011
938,1	0,011
938,5	0,011
939	0,011
939,4	0,011
939,8	0,011
940,2	0,011
940,6	0,011
941,1	0,011
941,5	0,011
941,9	0,011
942,3	0,011
942,8	0,011
943,2	0,011
943,6	0,011
944	0,011
944,4	0,011
944,9	0,011
945,3	0,011
945,7	0,012
946,1	0,012
946,6	0,012
947	0,012
947,4	0,012
947,8	0,012
948,2	0,012
948,7	0,012
949,1	0,012
949,5	0,012
949,9	0,012
950,3	0,012
950,8	0,012
951,2	0,012
951,6	0,011
952	0,011
952,5	0,011
952,9	0,011
953,3	0,011
953,7	0,012
954,1	0,012
954,6	0,013
955	0,013
955,4	0,013
955,8	0,013
956,2	0,013
956,7	0,013
957,1	0,013
957,5	0,012
957,9	0,012
958,3	0,011
958,8	0,011
959,2	0,011
959,6	0,012
960	0,011
960,5	0,011
960,9	0,011
961,3	0,012
961,7	0,012
962,1	0,012
962,6	0,012
963	0,012
963,4	0,013
963,8	0,013
964,2	0,013
964,7	0,014
965,1	0,014
965,5	0,014
965,9	0,014
966,3	0,014
966,8	0,013
967,2	0,013
967,6	0,013
968	0,013
968,4	0,013
968,9	0,012
969,3	0,012
969,7	0,012
970,1	0,012
970,5	0,012
971	0,011
971,4	0,011
971,8	0,011
972,2	0,011
972,6	0,011
973,1	0,011
973,5	0,011
973,9	0,011
974,3	0,011
974,7	0,011
975,2	0,012
975,6	0,011
976	0,011
976,4	0,011
976,8	0,011
977,3	0,011
977,7	0,011
978,1	0,012
978,5	0,011
978,9	0,012
979,4	0,012
979,8	0,012
980,2	0,012
980,6	0,012
981	0,012
981,5	0,012
981,9	0,012
982,3	0,013
982,7	0,013
983,1	0,012
983,6	0,012
984	0,012
984,4	0,012
984,8	0,013
985,2	0,012
985,6	0,012
986,1	0,012
986,5	0,012
986,9	0,012
987,3	0,012
987,7	0,012
988,2	0,013
988,6	0,013
989	0,013
989,4	0,012
989,8	0,011
990,3	0,011
990,7	0,011
991,1	0,01
991,5	0,01
991,9	0,01
992,3	0,01
992,8	0,01
993,2	0,01
993,6	0,01
994	0,011
994,4	0,012
994,9	0,012
995,3	0,012
995,7	0,012
996,1	0,012
996,5	0,012
996,9	0,012
997,4	0,012
997,8	0,011
998,2	0,011
998,6	0,011
999	0,011
999,5	0,011
999,9	0,01
1000,3	0,011
1000,7	0,011
1001,1	0,012
1001,5	0,011
1002	0,012
1002,4	0,012
1002,8	0,012
1003,2	0,013
1003,6	0,012
1004	0,012
1004,5	0,013
1004,9	0,013
1005,3	0,013
1005,7	0,013
1006,1	0,012
1006,6	0,013
1007	0,012
1007,4	0,012
1007,8	0,012
1008,2	0,011
1008,6	0,011
1009,1	0,01
1009,5	0,01
1009,9	0,01
1010,3	0,01
1010,7	0,01
1011,1	0,011
1011,6	0,011
1012	0,011
1012,4	0,012
1012,8	0,012
1013,2	0,012
1013,6	0,012
1014,1	0,012
1014,5	0,012
1014,9	0,012
1015,3	0,012
1015,7	0,012
1016,1	0,011
1016,6	0,011
1017	0,012
1017,4	0,012
1017,8	0,011
1018,2	0,011
1018,6	0,011
1019,1	0,011
1019,5	0,011
1019,9	0,011
1020,3	0,011
1020,7	0,011
1021,1	0,012
1021,6	0,011
1022	0,011
1022,4	0,012
1022,8	0,012
1023,2	0,012
1023,6	0,013
1024,1	0,012
1024,5	0,012
1024,9	0,013
1025,3	0,012
1025,7	0,013
1026,1	0,012
1026,6	0,012
1027	0,011
1027,4	0,012
1027,8	0,011
1028,2	0,012
1028,6	0,011
1029	0,011
1029,5	0,011
1029,9	0,011
1030,3	0,011
1030,7	0,011
1031,1	0,011
1031,5	0,011
1032	0,01
1032,4	0,01
1032,8	0,011
1033,2	0,012
1033,6	0,012
1034	0,011
1034,4	0,01
1034,9	0,01
1035,3	0,01
1035,7	0,01
1036,1	0,01
1036,5	0,01
1036,9	0,011
1037,4	0,011
1037,8	0,011
1038,2	0,012
1038,6	0,012
1039	0,011
1039,4	0,011
1039,8	0,011
1040,3	0,011
1040,7	0,011
1041,1	0,01
1041,5	0,01
1041,9	0,011
1042,3	0,011
1042,7	0,011
1043,2	0,012
1043,6	0,012
1044	0,011
1044,4	0,011
1044,8	0,011
1045,2	0,011
1045,6	0,012
1046,1	0,011
1046,5	0,012
1046,9	0,012
1047,3	0,012
1047,7	0,01
1048,1	0,01
1048,5	0,01
1049	0,01
1049,4	0,009
1049,8	0,009
1050,2	0,009
1050,6	0,01
1051	0,011
1051,4	0,01
1051,9	0,011
1052,3	0,012
1052,7	0,012
1053,1	0,013
1053,5	0,013
1053,9	0,013
1054,3	0,013
1054,8	0,012
1055,2	0,012
1055,6	0,012
1056	0,012
1056,4	0,011
1056,8	0,011
1057,2	0,011
1057,6	0,011
1058,1	0,011
1058,5	0,011
1058,9	0,01
1059,3	0,011
1059,7	0,011
1060,1	0,012
1060,5	0,013
1061	0,013
1061,4	0,012
1061,8	0,013
1062,2	0,012
1062,6	0,012
1063	0,012
1063,4	0,01
1063,8	0,01
1064,3	0,01
1064,7	0,009
1065,1	0,009
1065,5	0,009
1065,9	0,009
1066,3	0,01
1066,7	0,01
1067,1	0,01
1067,6	0,012
1068	0,012
1068,4	0,011
1068,8	0,011
1069,2	0,01
1069,6	0,011
1070	0,011
1070,4	0,011
1070,9	0,012
1071,3	0,012
1071,7	0,012
1072,1	0,012
1072,5	0,012
1072,9	0,011
1073,3	0,011
1073,7	0,01
1074,2	0,012
1074,6	0,013
1075	0,013
1075,4	0,012
1075,8	0,012
1076,2	0,012
1076,6	0,012
1077	0,011
1077,5	0,01
1077,9	0,011
1078,3	0,012
1078,7	0,012
1079,1	0,014
1079,5	0,013
1079,9	0,014
1080,3	0,014
1080,7	0,015
1081,2	0,015
1081,6	0,015
1082	0,015
1082,4	0,016
1082,8	0,016
1083,2	0,017
1083,6	0,016
1084	0,014
1084,5	0,013
1084,9	0,013
1085,3	0,013
1085,7	0,013
1086,1	0,012
1086,5	0,012
1086,9	0,013
1087,3	0,013
1087,7	0,013
1088,2	0,012
1088,6	0,012
1089	0,012
1089,4	0,014
1089,8	0,012
1090,2	0,012
1090,6	0,014
1091	0,014
1091,4	0,012
1091,9	0,011
1092,3	0,012
1092,7	0,011
1093,1	0,011
1093,5	0,008
1093,9	0,01
1094,3	0,01
1094,7	0,01
1095,1	0,007
1095,5	0,007
1096	0,009
1096,4	0,005
1096,8	0,001
1097,2	0,001
1097,6	0,005
1098	0,003
1098,4	0,004
1098,8	0,001
1099,2	0,004
1099,6	0,017
1100,1	0,027
1100,5	0,03
1100,9	0,035
1101,3	0,034
1101,7	0,037
1102,1	0,045
1102,5	0,03
1102,9	0,017
1103,3	0,011
1103,7	0,009
1104,2	0,015
1104,6	0,011
1105	0,003
1105,4	0,01
1105,8	0,02
1106,2	0,025
1106,6	0,033
1107	0,032
1107,4	0,053
1107,8	0,092
1108,3	-0
