Data from Absorbance_178.txt Node
Date: Fri Nov 13 20:23:52 MSK 2020
User: vat
Spectrometer: MAYP114033
Trigger mode: 0
Integration Time (sec): 8,000000E-3
Scans to average: 10
Electric dark correction enabled: true
Nonlinearity correction enabled: false
Boxcar width: 3
XAxis mode: Wavelengths
Number of Pixels in Spectrum: 2068
>>>>>Begin Spectral Data<<<<<
199,4	0,354
199,9	0,292
200,4	0,151
200,8	0,125
201,3	0,057
201,8	0,081
202,2	0,093
202,7	0,118
203,2	0,095
203,6	0,1
204,1	0,113
204,6	0,132
205	0,118
205,5	0,117
206	0,097
206,4	0,089
206,9	0,092
207,4	0,083
207,8	0,075
208,3	0,077
208,8	0,077
209,2	0,095
209,7	0,098
210,2	0,098
210,6	0,088
211,1	0,093
211,5	0,089
212	0,094
212,5	0,09
212,9	0,108
213,4	0,102
213,9	0,122
214,3	0,126
214,8	0,13
215,3	0,135
215,7	0,136
216,2	0,123
216,7	0,123
217,1	0,111
217,6	0,1
218,1	0,092
218,5	0,07
219	0,057
219,5	0,071
219,9	0,073
220,4	0,083
220,9	0,094
221,3	0,101
221,8	0,12
222,3	0,125
222,7	0,127
223,2	0,147
223,6	0,137
224,1	0,145
224,6	0,156
225	0,16
225,5	0,163
226	0,161
226,4	0,137
226,9	0,134
227,4	0,114
227,8	0,104
228,3	0,094
228,8	0,109
229,2	0,105
229,7	0,117
230,2	0,11
230,6	0,116
231,1	0,122
231,5	0,124
232	0,107
232,5	0,122
232,9	0,12
233,4	0,15
233,9	0,158
234,3	0,171
234,8	0,171
235,3	0,174
235,7	0,159
236,2	0,159
236,7	0,149
237,1	0,166
237,6	0,157
238,1	0,152
238,5	0,159
239	0,165
239,4	0,166
239,9	0,169
240,4	0,164
240,8	0,161
241,3	0,181
241,8	0,19
242,2	0,188
242,7	0,193
243,2	0,189
243,6	0,194
244,1	0,201
244,6	0,194
245	0,189
245,5	0,2
245,9	0,206
246,4	0,219
246,9	0,212
247,3	0,214
247,8	0,218
248,3	0,222
248,7	0,228
249,2	0,24
249,7	0,242
250,1	0,252
250,6	0,257
251	0,263
251,5	0,262
252	0,259
252,4	0,259
252,9	0,26
253,4	0,26
253,8	0,262
254,3	0,266
254,8	0,268
255,2	0,272
255,7	0,275
256,1	0,279
256,6	0,284
257,1	0,289
257,5	0,293
258	0,301
258,5	0,305
258,9	0,31
259,4	0,317
259,9	0,322
260,3	0,327
260,8	0,334
261,2	0,338
261,7	0,345
262,2	0,352
262,6	0,358
263,1	0,365
263,6	0,371
264	0,377
264,5	0,385
264,9	0,392
265,4	0,399
265,9	0,405
266,3	0,412
266,8	0,42
267,3	0,426
267,7	0,433
268,2	0,44
268,7	0,446
269,1	0,454
269,6	0,461
270	0,469
270,5	0,476
271	0,481
271,4	0,487
271,9	0,494
272,4	0,501
272,8	0,508
273,3	0,513
273,7	0,52
274,2	0,527
274,7	0,533
275,1	0,538
275,6	0,542
276,1	0,546
276,5	0,551
277	0,555
277,4	0,559
277,9	0,563
278,4	0,566
278,8	0,57
279,3	0,572
279,8	0,574
280,2	0,577
280,7	0,578
281,1	0,578
281,6	0,579
282,1	0,579
282,5	0,58
283	0,58
283,4	0,578
283,9	0,576
284,4	0,575
284,8	0,573
285,3	0,57
285,8	0,566
286,2	0,563
286,7	0,559
287,1	0,555
287,6	0,55
288,1	0,545
288,5	0,539
289	0,532
289,5	0,526
289,9	0,518
290,4	0,512
290,8	0,504
291,3	0,496
291,8	0,488
292,2	0,479
292,7	0,47
293,1	0,46
293,6	0,45
294,1	0,44
294,5	0,43
295	0,42
295,5	0,409
295,9	0,399
296,4	0,389
296,8	0,378
297,3	0,368
297,8	0,357
298,2	0,346
298,7	0,336
299,1	0,326
299,6	0,315
300,1	0,306
300,5	0,296
301	0,286
301,5	0,276
301,9	0,267
302,4	0,258
302,8	0,249
303,3	0,24
303,8	0,232
304,2	0,224
304,7	0,216
305,1	0,208
305,6	0,201
306,1	0,194
306,5	0,186
307	0,18
307,4	0,174
307,9	0,168
308,4	0,162
308,8	0,156
309,3	0,151
309,8	0,146
310,2	0,141
310,7	0,137
311,1	0,132
311,6	0,128
312,1	0,124
312,5	0,12
313	0,116
313,4	0,113
313,9	0,11
314,4	0,106
314,8	0,103
315,3	0,1
315,7	0,098
316,2	0,096
316,7	0,093
317,1	0,092
317,6	0,09
318	0,088
318,5	0,087
319	0,085
319,4	0,083
319,9	0,082
320,3	0,081
320,8	0,079
321,3	0,078
321,7	0,076
322,2	0,075
322,6	0,074
323,1	0,073
323,6	0,072
324	0,072
324,5	0,07
324,9	0,07
325,4	0,07
325,9	0,069
326,3	0,068
326,8	0,068
327,2	0,067
327,7	0,067
328,2	0,066
328,6	0,066
329,1	0,065
329,5	0,065
330	0,064
330,5	0,064
330,9	0,063
331,4	0,063
331,8	0,062
332,3	0,062
332,8	0,062
333,2	0,061
333,7	0,061
334,1	0,06
334,6	0,06
335,1	0,06
335,5	0,059
336	0,059
336,4	0,059
336,9	0,059
337,4	0,059
337,8	0,058
338,3	0,058
338,7	0,058
339,2	0,058
339,7	0,057
340,1	0,057
340,6	0,057
341	0,057
341,5	0,056
342	0,056
342,4	0,055
342,9	0,055
343,3	0,055
343,8	0,054
344,2	0,054
344,7	0,054
345,2	0,055
345,6	0,055
346,1	0,055
346,5	0,054
347	0,055
347,5	0,054
347,9	0,055
348,4	0,054
348,8	0,054
349,3	0,053
349,8	0,054
350,2	0,053
350,7	0,053
351,1	0,053
351,6	0,053
352	0,052
352,5	0,052
353	0,052
353,4	0,052
353,9	0,051
354,3	0,051
354,8	0,051
355,3	0,05
355,7	0,05
356,2	0,049
356,6	0,049
357,1	0,05
357,5	0,049
358	0,049
358,5	0,049
358,9	0,05
359,4	0,049
359,8	0,049
360,3	0,049
360,8	0,049
361,2	0,049
361,7	0,049
362,1	0,049
362,6	0,049
363	0,048
363,5	0,048
364	0,048
364,4	0,048
364,9	0,048
365,3	0,048
365,8	0,048
366,3	0,047
366,7	0,047
367,2	0,046
367,6	0,046
368,1	0,046
368,5	0,045
369	0,044
369,5	0,044
369,9	0,044
370,4	0,044
370,8	0,044
371,3	0,044
371,7	0,044
372,2	0,044
372,7	0,044
373,1	0,043
373,6	0,044
374	0,044
374,5	0,044
374,9	0,044
375,4	0,044
375,9	0,044
376,3	0,043
376,8	0,043
377,2	0,042
377,7	0,042
378,2	0,042
378,6	0,041
379,1	0,041
379,5	0,041
380	0,041
380,4	0,041
380,9	0,04
381,4	0,04
381,8	0,039
382,3	0,039
382,7	0,039
383,2	0,039
383,6	0,039
384,1	0,04
384,6	0,04
385	0,04
385,5	0,039
385,9	0,039
386,4	0,039
386,8	0,039
387,3	0,039
387,7	0,039
388,2	0,04
388,7	0,04
389,1	0,04
389,6	0,039
390	0,039
390,5	0,039
390,9	0,038
391,4	0,038
391,9	0,037
392,3	0,037
392,8	0,037
393,2	0,037
393,7	0,037
394,1	0,037
394,6	0,036
395,1	0,036
395,5	0,036
396	0,036
396,4	0,036
396,9	0,035
397,3	0,035
397,8	0,035
398,2	0,035
398,7	0,035
399,2	0,035
399,6	0,035
400,1	0,034
400,5	0,035
401	0,035
401,4	0,035
401,9	0,034
402,4	0,034
402,8	0,034
403,3	0,034
403,7	0,033
404,2	0,033
404,6	0,033
405,1	0,033
405,5	0,033
406	0,032
406,5	0,032
406,9	0,032
407,4	0,033
407,8	0,032
408,3	0,032
408,7	0,032
409,2	0,032
409,6	0,032
410,1	0,031
410,6	0,031
411	0,031
411,5	0,031
411,9	0,031
412,4	0,031
412,8	0,031
413,3	0,031
413,7	0,031
414,2	0,031
414,7	0,031
415,1	0,032
415,6	0,032
416	0,031
416,5	0,031
416,9	0,031
417,4	0,031
417,8	0,031
418,3	0,031
418,8	0,031
419,2	0,031
419,7	0,031
420,1	0,031
420,6	0,031
421	0,03
421,5	0,03
421,9	0,03
422,4	0,031
422,8	0,031
423,3	0,031
423,8	0,03
424,2	0,03
424,7	0,03
425,1	0,03
425,6	0,029
426	0,029
426,5	0,029
426,9	0,028
427,4	0,028
427,9	0,027
428,3	0,027
428,8	0,027
429,2	0,027
429,7	0,027
430,1	0,027
430,6	0,027
431	0,027
431,5	0,027
431,9	0,028
432,4	0,028
432,8	0,028
433,3	0,028
433,8	0,028
434,2	0,028
434,7	0,028
435,1	0,028
435,6	0,027
436	0,027
436,5	0,026
436,9	0,026
437,4	0,026
437,8	0,026
438,3	0,025
438,8	0,026
439,2	0,026
439,7	0,026
440,1	0,027
440,6	0,027
441	0,026
441,5	0,027
441,9	0,027
442,4	0,026
442,8	0,026
443,3	0,026
443,7	0,026
444,2	0,027
444,7	0,027
445,1	0,026
445,6	0,026
446	0,027
446,5	0,026
446,9	0,026
447,4	0,026
447,8	0,026
448,3	0,026
448,7	0,026
449,2	0,025
449,6	0,025
450,1	0,025
450,6	0,025
451	0,025
451,5	0,025
451,9	0,026
452,4	0,026
452,8	0,026
453,3	0,026
453,7	0,025
454,2	0,025
454,6	0,025
455,1	0,025
455,5	0,025
456	0,024
456,4	0,024
456,9	0,024
457,3	0,024
457,8	0,024
458,3	0,023
458,7	0,023
459,2	0,024
459,6	0,023
460,1	0,023
460,5	0,024
461	0,024
461,4	0,024
461,9	0,024
462,3	0,024
462,8	0,024
463,2	0,025
463,7	0,024
464,1	0,024
464,6	0,024
465	0,024
465,5	0,023
466	0,023
466,4	0,023
466,9	0,022
467,3	0,022
467,8	0,022
468,2	0,022
468,7	0,022
469,1	0,022
469,6	0,022
470	0,022
470,5	0,023
470,9	0,023
471,4	0,023
471,8	0,023
472,3	0,023
472,7	0,023
473,2	0,024
473,6	0,023
474,1	0,022
474,5	0,022
475	0,022
475,4	0,022
475,9	0,022
476,4	0,021
476,8	0,022
477,3	0,022
477,7	0,022
478,2	0,022
478,6	0,022
479,1	0,022
479,5	0,022
480	0,023
480,4	0,022
480,9	0,022
481,3	0,022
481,8	0,022
482,2	0,022
482,7	0,022
483,1	0,022
483,6	0,022
484	0,023
484,5	0,022
484,9	0,022
485,4	0,021
485,8	0,021
486,3	0,021
486,7	0,021
487,2	0,021
487,6	0,021
488,1	0,021
488,5	0,021
489	0,021
489,4	0,021
489,9	0,02
490,4	0,02
490,8	0,021
491,3	0,021
491,7	0,021
492,2	0,021
492,6	0,021
493,1	0,021
493,5	0,022
494	0,021
494,4	0,021
494,9	0,021
495,3	0,021
495,8	0,021
496,2	0,021
496,7	0,02
497,1	0,021
497,6	0,021
498	0,021
498,5	0,021
498,9	0,021
499,4	0,02
499,8	0,02
500,3	0,02
500,7	0,02
501,2	0,02
501,6	0,02
502,1	0,02
502,5	0,02
503	0,02
503,4	0,02
503,9	0,02
504,3	0,019
504,8	0,019
505,2	0,019
505,7	0,019
506,1	0,019
506,6	0,019
507	0,018
507,5	0,018
507,9	0,018
508,4	0,018
508,8	0,018
509,3	0,018
509,7	0,018
510,2	0,018
510,6	0,018
511,1	0,018
511,5	0,018
512	0,018
512,4	0,018
512,9	0,018
513,3	0,018
513,8	0,017
514,2	0,017
514,7	0,018
515,1	0,018
515,6	0,017
516	0,017
516,5	0,017
516,9	0,017
517,4	0,017
517,8	0,017
518,3	0,017
518,7	0,017
519,2	0,017
519,6	0,017
520,1	0,017
520,5	0,017
521	0,017
521,4	0,017
521,9	0,017
522,3	0,018
522,8	0,017
523,2	0,018
523,7	0,017
524,1	0,017
524,6	0,017
525	0,017
525,5	0,017
525,9	0,017
526,4	0,016
526,8	0,017
527,3	0,017
527,7	0,016
528,2	0,016
528,6	0,016
529,1	0,015
529,5	0,016
530	0,016
530,4	0,016
530,9	0,016
531,3	0,016
531,8	0,017
532,2	0,017
532,6	0,016
533,1	0,016
533,5	0,016
534	0,015
534,4	0,015
534,9	0,015
535,3	0,016
535,8	0,016
536,2	0,015
536,7	0,016
537,1	0,016
537,6	0,016
538	0,016
538,5	0,016
538,9	0,016
539,4	0,017
539,8	0,016
540,3	0,016
540,7	0,016
541,2	0,015
541,6	0,015
542,1	0,015
542,5	0,015
543	0,015
543,4	0,015
543,9	0,015
544,3	0,015
544,8	0,015
545,2	0,015
545,7	0,015
546,1	0,015
546,5	0,015
547	0,015
547,4	0,014
547,9	0,014
548,3	0,014
548,8	0,014
549,2	0,014
549,7	0,013
550,1	0,014
550,6	0,014
551	0,014
551,5	0,014
551,9	0,014
552,4	0,013
552,8	0,013
553,3	0,013
553,7	0,013
554,2	0,013
554,6	0,013
555,1	0,013
555,5	0,013
555,9	0,013
556,4	0,013
556,8	0,013
557,3	0,013
557,7	0,013
558,2	0,013
558,6	0,013
559,1	0,013
559,5	0,012
560	0,012
560,4	0,012
560,9	0,012
561,3	0,012
561,8	0,012
562,2	0,012
562,7	0,013
563,1	0,013
563,6	0,013
564	0,013
564,4	0,012
564,9	0,013
565,3	0,012
565,8	0,012
566,2	0,012
566,7	0,012
567,1	0,012
567,6	0,012
568	0,012
568,5	0,012
568,9	0,012
569,4	0,012
569,8	0,012
570,3	0,012
570,7	0,012
571,1	0,012
571,6	0,012
572	0,012
572,5	0,012
572,9	0,012
573,4	0,012
573,8	0,012
574,3	0,012
574,7	0,012
575,2	0,012
575,6	0,012
576,1	0,012
576,5	0,012
576,9	0,011
577,4	0,011
577,8	0,011
578,3	0,011
578,7	0,011
579,2	0,011
579,6	0,011
580,1	0,011
580,5	0,011
581	0,011
581,4	0,011
581,9	0,011
582,3	0,01
582,7	0,011
583,2	0,011
583,6	0,011
584,1	0,011
584,5	0,011
585	0,011
585,4	0,011
585,9	0,011
586,3	0,01
586,8	0,01
587,2	0,01
587,6	0,01
588,1	0,01
588,5	0,01
589	0,01
589,4	0,011
589,9	0,01
590,3	0,01
590,8	0,01
591,2	0,01
591,7	0,01
592,1	0,01
592,5	0,01
593	0,011
593,4	0,011
593,9	0,01
594,3	0,01
594,8	0,01
595,2	0,01
595,7	0,01
596,1	0,01
596,6	0,01
597	0,01
597,4	0,01
597,9	0,01
598,3	0,009
598,8	0,01
599,2	0,01
599,7	0,009
600,1	0,009
600,6	0,009
601	0,009
601,4	0,009
601,9	0,009
602,3	0,009
602,8	0,009
603,2	0,009
603,7	0,009
604,1	0,009
604,6	0,009
605	0,009
605,4	0,009
605,9	0,009
606,3	0,009
606,8	0,009
607,2	0,009
607,7	0,009
608,1	0,009
608,6	0,009
609	0,009
609,4	0,009
609,9	0,009
610,3	0,009
610,8	0,009
611,2	0,008
611,7	0,008
612,1	0,009
612,6	0,009
613	0,009
613,4	0,008
613,9	0,009
614,3	0,008
614,8	0,008
615,2	0,008
615,7	0,008
616,1	0,008
616,6	0,008
617	0,008
617,4	0,008
617,9	0,008
618,3	0,008
618,8	0,008
619,2	0,008
619,7	0,008
620,1	0,008
620,5	0,008
621	0,008
621,4	0,009
621,9	0,009
622,3	0,009
622,8	0,009
623,2	0,009
623,6	0,009
624,1	0,009
624,5	0,008
625	0,007
625,4	0,007
625,9	0,007
626,3	0,007
626,8	0,007
627,2	0,008
627,6	0,009
628,1	0,009
628,5	0,009
629	0,008
629,4	0,008
629,9	0,008
630,3	0,008
630,7	0,007
631,2	0,007
631,6	0,007
632,1	0,007
632,5	0,007
633	0,007
633,4	0,007
633,8	0,007
634,3	0,008
634,7	0,008
635,2	0,008
635,6	0,008
636,1	0,007
636,5	0,007
636,9	0,007
637,4	0,007
637,8	0,007
638,3	0,007
638,7	0,007
639,2	0,008
639,6	0,007
640	0,008
640,5	0,008
640,9	0,008
641,4	0,007
641,8	0,007
642,2	0,007
642,7	0,007
643,1	0,006
643,6	0,006
644	0,006
644,5	0,006
644,9	0,007
645,3	0,007
645,8	0,007
646,2	0,007
646,7	0,008
647,1	0,008
647,6	0,008
648	0,007
648,4	0,007
648,9	0,007
649,3	0,007
649,8	0,007
650,2	0,007
650,6	0,007
651,1	0,007
651,5	0,007
652	0,007
652,4	0,007
652,9	0,007
653,3	0,009
653,7	0,013
654,2	0,009
654,6	0,006
655,1	0,005
655,5	0,004
655,9	0,004
656,4	0,004
656,8	0,001
657,3	0,002
657,7	0,003
658,2	0,004
658,6	0,005
659	0,006
659,5	0,006
659,9	0,005
660,4	0,006
660,8	0,006
661,2	0,006
661,7	0,006
662,1	0,006
662,6	0,006
663	0,006
663,4	0,005
663,9	0,005
664,3	0,005
664,8	0,005
665,2	0,005
665,6	0,005
666,1	0,006
666,5	0,006
667	0,006
667,4	0,005
667,9	0,005
668,3	0,006
668,7	0,006
669,2	0,006
669,6	0,006
670,1	0,006
670,5	0,006
670,9	0,006
671,4	0,006
671,8	0,006
672,3	0,006
672,7	0,006
673,1	0,006
673,6	0,006
674	0,005
674,5	0,005
674,9	0,005
675,3	0,005
675,8	0,006
676,2	0,005
676,7	0,005
677,1	0,006
677,5	0,006
678	0,006
678,4	0,006
678,9	0,006
679,3	0,006
679,7	0,006
680,2	0,006
680,6	0,005
681,1	0,005
681,5	0,005
681,9	0,005
682,4	0,006
682,8	0,005
683,3	0,006
683,7	0,006
684,1	0,006
684,6	0,005
685	0,005
685,5	0,005
685,9	0,006
686,3	0,005
686,8	0,005
687,2	0,005
687,7	0,005
688,1	0,005
688,5	0,005
689	0,005
689,4	0,005
689,9	0,006
690,3	0,005
690,7	0,005
691,2	0,006
691,6	0,006
692	0,006
692,5	0,005
692,9	0,005
693,4	0,005
693,8	0,005
694,2	0,005
694,7	0,005
695,1	0,005
695,6	0,005
696	0,005
696,4	0,005
696,9	0,005
697,3	0,005
697,8	0,005
698,2	0,005
698,6	0,005
699,1	0,005
699,5	0,005
699,9	0,005
700,4	0,005
700,8	0,005
701,3	0,005
701,7	0,005
702,1	0,005
702,6	0,004
703	0,004
703,5	0,005
703,9	0,005
704,3	0,005
704,8	0,005
705,2	0,005
705,6	0,005
706,1	0,005
706,5	0,005
707	0,005
707,4	0,005
707,8	0,005
708,3	0,005
708,7	0,005
709,2	0,005
709,6	0,005
710	0,005
710,5	0,005
710,9	0,005
711,3	0,005
711,8	0,005
712,2	0,005
712,7	0,005
713,1	0,005
713,5	0,005
714	0,005
714,4	0,005
714,8	0,005
715,3	0,005
715,7	0,005
716,2	0,005
716,6	0,005
717	0,005
717,5	0,004
717,9	0,004
718,3	0,004
718,8	0,004
719,2	0,005
719,7	0,005
720,1	0,005
720,5	0,005
721	0,005
721,4	0,005
721,8	0,005
722,3	0,005
722,7	0,004
723,2	0,004
723,6	0,004
724	0,004
724,5	0,004
724,9	0,004
725,3	0,004
725,8	0,004
726,2	0,004
726,7	0,005
727,1	0,005
727,5	0,005
728	0,005
728,4	0,005
728,8	0,005
729,3	0,005
729,7	0,005
730,1	0,006
730,6	0,006
731	0,006
731,5	0,006
731,9	0,005
732,3	0,005
732,8	0,005
733,2	0,004
733,6	0,004
734,1	0,004
734,5	0,004
734,9	0,004
735,4	0,005
735,8	0,005
736,3	0,005
736,7	0,005
737,1	0,005
737,6	0,005
738	0,005
738,4	0,005
738,9	0,005
739,3	0,005
739,7	0,005
740,2	0,006
740,6	0,005
741,1	0,005
741,5	0,005
741,9	0,005
742,4	0,005
742,8	0,005
743,2	0,005
743,7	0,005
744,1	0,005
744,5	0,005
745	0,005
745,4	0,005
745,8	0,005
746,3	0,005
746,7	0,005
747,2	0,005
747,6	0,004
748	0,005
748,5	0,005
748,9	0,005
749,3	0,005
749,8	0,005
750,2	0,005
750,6	0,005
751,1	0,005
751,5	0,005
751,9	0,005
752,4	0,005
752,8	0,005
753,3	0,005
753,7	0,005
754,1	0,005
754,6	0,005
755	0,005
755,4	0,005
755,9	0,005
756,3	0,004
756,7	0,004
757,2	0,004
757,6	0,004
758	0,004
758,5	0,004
758,9	0,005
759,3	0,005
759,8	0,005
760,2	0,005
760,6	0,005
761,1	0,005
761,5	0,005
761,9	0,005
762,4	0,005
762,8	0,005
763,3	0,005
763,7	0,005
764,1	0,005
764,6	0,005
765	0,005
765,4	0,005
765,9	0,005
766,3	0,006
766,7	0,005
767,2	0,006
767,6	0,006
768	0,005
768,5	0,005
768,9	0,005
769,3	0,005
769,8	0,005
770,2	0,005
770,6	0,005
771,1	0,005
771,5	0,004
771,9	0,004
772,4	0,004
772,8	0,004
773,2	0,004
773,7	0,004
774,1	0,004
774,5	0,003
775	0,003
775,4	0,003
775,8	0,003
776,3	0,003
776,7	0,004
777,1	0,004
777,6	0,004
778	0,004
778,4	0,004
778,9	0,003
779,3	0,004
779,7	0,003
780,2	0,003
780,6	0,004
781	0,004
781,5	0,004
781,9	0,004
782,3	0,003
782,8	0,004
783,2	0,004
783,6	0,003
784,1	0,003
784,5	0,003
784,9	0,003
785,4	0,003
785,8	0,003
786,2	0,003
786,7	0,004
787,1	0,004
787,5	0,004
788	0,005
788,4	0,005
788,8	0,005
789,3	0,005
789,7	0,005
790,1	0,005
790,6	0,005
791	0,004
791,4	0,004
791,9	0,004
792,3	0,004
792,7	0,004
793,2	0,004
793,6	0,004
794	0,005
794,5	0,005
794,9	0,005
795,3	0,005
795,8	0,006
796,2	0,006
796,6	0,006
797,1	0,006
797,5	0,006
797,9	0,005
798,4	0,005
798,8	0,004
799,2	0,004
799,7	0,004
800,1	0,004
800,5	0,004
801	0,004
801,4	0,004
801,8	0,004
802,2	0,004
802,7	0,005
803,1	0,005
803,5	0,005
804	0,005
804,4	0,005
804,8	0,005
805,3	0,005
805,7	0,005
806,1	0,005
806,6	0,005
807	0,005
807,4	0,005
807,9	0,005
808,3	0,005
808,7	0,005
809,2	0,005
809,6	0,005
810	0,005
810,4	0,005
810,9	0,005
811,3	0,004
811,7	0,004
812,2	0,004
812,6	0,004
813	0,004
813,5	0,003
813,9	0,003
814,3	0,004
814,8	0,004
815,2	0,003
815,6	0,003
816,1	0,003
816,5	0,003
816,9	0,003
817,3	0,003
817,8	0,004
818,2	0,004
818,6	0,004
819,1	0,004
819,5	0,004
819,9	0,004
820,4	0,004
820,8	0,004
821,2	0,003
821,7	0,003
822,1	0,003
822,5	0,003
822,9	0,004
823,4	0,004
823,8	0,004
824,2	0,004
824,7	0,004
825,1	0,005
825,5	0,005
826	0,005
826,4	0,005
826,8	0,004
827,3	0,004
827,7	0,004
828,1	0,004
828,5	0,004
829	0,004
829,4	0,004
829,8	0,004
830,3	0,004
830,7	0,004
831,1	0,004
831,6	0,004
832	0,004
832,4	0,004
832,8	0,004
833,3	0,004
833,7	0,005
834,1	0,004
834,6	0,004
835	0,004
835,4	0,004
835,8	0,004
836,3	0,004
836,7	0,003
837,1	0,003
837,6	0,003
838	0,003
838,4	0,003
838,9	0,003
839,3	0,003
839,7	0,003
840,1	0,003
840,6	0,003
841	0,004
841,4	0,004
841,9	0,004
842,3	0,004
842,7	0,004
843,1	0,004
843,6	0,004
844	0,004
844,4	0,004
844,9	0,005
845,3	0,004
845,7	0,004
846,2	0,004
846,6	0,004
847	0,004
847,4	0,004
847,9	0,003
848,3	0,004
848,7	0,004
849,2	0,004
849,6	0,004
850	0,003
850,4	0,003
850,9	0,003
851,3	0,003
851,7	0,004
852,2	0,004
852,6	0,004
853	0,004
853,4	0,004
853,9	0,004
854,3	0,004
854,7	0,004
855,2	0,004
855,6	0,004
856	0,004
856,4	0,004
856,9	0,004
857,3	0,004
857,7	0,004
858,2	0,004
858,6	0,004
859	0,004
859,4	0,004
859,9	0,004
860,3	0,005
860,7	0,004
861,1	0,004
861,6	0,004
862	0,003
862,4	0,003
862,9	0,003
863,3	0,003
863,7	0,003
864,1	0,004
864,6	0,004
865	0,005
865,4	0,005
865,9	0,005
866,3	0,005
866,7	0,005
867,1	0,004
867,6	0,004
868	0,004
868,4	0,004
868,8	0,004
869,3	0,005
869,7	0,004
870,1	0,004
870,6	0,004
871	0,004
871,4	0,004
871,8	0,003
872,3	0,003
872,7	0,003
873,1	0,003
873,5	0,004
874	0,004
874,4	0,004
874,8	0,004
875,3	0,004
875,7	0,004
876,1	0,004
876,5	0,004
877	0,005
877,4	0,005
877,8	0,005
878,2	0,005
878,7	0,004
879,1	0,004
879,5	0,004
879,9	0,004
880,4	0,004
880,8	0,004
881,2	0,004
881,7	0,004
882,1	0,005
882,5	0,005
882,9	0,005
883,4	0,005
883,8	0,005
884,2	0,005
884,6	0,005
885,1	0,004
885,5	0,004
885,9	0,003
886,3	0,004
886,8	0,004
887,2	0,004
887,6	0,004
888	0,005
888,5	0,005
888,9	0,005
889,3	0,006
889,8	0,005
890,2	0,005
890,6	0,005
891	0,005
891,5	0,005
891,9	0,005
892,3	0,005
892,7	0,005
893,2	0,005
893,6	0,005
894	0,005
894,4	0,005
894,9	0,005
895,3	0,005
895,7	0,005
896,1	0,005
896,6	0,005
897	0,005
897,4	0,004
897,8	0,004
898,3	0,004
898,7	0,004
899,1	0,004
899,5	0,004
900	0,004
900,4	0,004
900,8	0,004
901,2	0,004
901,7	0,004
902,1	0,004
902,5	0,004
902,9	0,005
903,4	0,005
903,8	0,004
904,2	0,005
904,6	0,004
905,1	0,005
905,5	0,005
905,9	0,005
906,3	0,005
906,8	0,005
907,2	0,005
907,6	0,005
908	0,005
908,5	0,005
908,9	0,005
909,3	0,005
909,7	0,005
910,2	0,005
910,6	0,006
911	0,005
911,4	0,005
911,9	0,005
912,3	0,005
912,7	0,004
913,1	0,004
913,6	0,004
914	0,004
914,4	0,004
914,8	0,004
915,3	0,004
915,7	0,004
916,1	0,004
916,5	0,004
916,9	0,003
917,4	0,003
917,8	0,003
918,2	0,003
918,6	0,003
919,1	0,003
919,5	0,003
919,9	0,003
920,3	0,003
920,8	0,003
921,2	0,003
921,6	0,004
922	0,004
922,5	0,005
922,9	0,005
923,3	0,005
923,7	0,005
924,2	0,004
924,6	0,004
925	0,003
925,4	0,003
925,8	0,003
926,3	0,003
926,7	0,003
927,1	0,003
927,5	0,003
928	0,003
928,4	0,004
928,8	0,004
929,2	0,004
929,7	0,004
930,1	0,004
930,5	0,005
930,9	0,004
931,3	0,004
931,8	0,004
932,2	0,004
932,6	0,004
933	0,004
933,5	0,005
933,9	0,005
934,3	0,005
934,7	0,005
935,2	0,004
935,6	0,004
936	0,004
936,4	0,004
936,8	0,004
937,3	0,003
937,7	0,003
938,1	0,004
938,5	0,003
939	0,004
939,4	0,003
939,8	0,003
940,2	0,003
940,6	0,003
941,1	0,003
941,5	0,004
941,9	0,003
942,3	0,004
942,8	0,004
943,2	0,005
943,6	0,005
944	0,005
944,4	0,004
944,9	0,005
945,3	0,004
945,7	0,004
946,1	0,004
946,6	0,003
947	0,003
947,4	0,003
947,8	0,003
948,2	0,003
948,7	0,004
949,1	0,003
949,5	0,004
949,9	0,004
950,3	0,004
950,8	0,004
951,2	0,004
951,6	0,004
952	0,004
952,5	0,004
952,9	0,004
953,3	0,004
953,7	0,004
954,1	0,004
954,6	0,004
955	0,004
955,4	0,004
955,8	0,004
956,2	0,004
956,7	0,004
957,1	0,004
957,5	0,004
957,9	0,004
958,3	0,004
958,8	0,004
959,2	0,003
959,6	0,003
960	0,003
960,5	0,003
960,9	0,003
961,3	0,004
961,7	0,004
962,1	0,005
962,6	0,005
963	0,005
963,4	0,006
963,8	0,006
964,2	0,006
964,7	0,006
965,1	0,006
965,5	0,005
965,9	0,005
966,3	0,005
966,8	0,005
967,2	0,004
967,6	0,004
968	0,004
968,4	0,004
968,9	0,005
969,3	0,004
969,7	0,004
970,1	0,004
970,5	0,005
971	0,005
971,4	0,005
971,8	0,004
972,2	0,004
972,6	0,004
973,1	0,004
973,5	0,004
973,9	0,004
974,3	0,004
974,7	0,004
975,2	0,004
975,6	0,004
976	0,004
976,4	0,003
976,8	0,004
977,3	0,004
977,7	0,004
978,1	0,004
978,5	0,004
978,9	0,004
979,4	0,004
979,8	0,004
980,2	0,004
980,6	0,004
981	0,004
981,5	0,004
981,9	0,004
982,3	0,004
982,7	0,004
983,1	0,004
983,6	0,004
984	0,004
984,4	0,004
984,8	0,005
985,2	0,005
985,6	0,005
986,1	0,006
986,5	0,007
986,9	0,007
987,3	0,007
987,7	0,007
988,2	0,007
988,6	0,007
989	0,006
989,4	0,006
989,8	0,006
990,3	0,005
990,7	0,005
991,1	0,005
991,5	0,005
991,9	0,005
992,3	0,005
992,8	0,004
993,2	0,005
993,6	0,005
994	0,006
994,4	0,006
994,9	0,005
995,3	0,006
995,7	0,005
996,1	0,005
996,5	0,005
996,9	0,005
997,4	0,005
997,8	0,004
998,2	0,004
998,6	0,004
999	0,004
999,5	0,004
999,9	0,004
1000,3	0,005
1000,7	0,005
1001,1	0,005
1001,5	0,005
1002	0,006
1002,4	0,006
1002,8	0,006
1003,2	0,006
1003,6	0,006
1004	0,006
1004,5	0,006
1004,9	0,006
1005,3	0,006
1005,7	0,006
1006,1	0,006
1006,6	0,005
1007	0,005
1007,4	0,005
1007,8	0,005
1008,2	0,005
1008,6	0,005
1009,1	0,004
1009,5	0,004
1009,9	0,005
1010,3	0,005
1010,7	0,005
1011,1	0,005
1011,6	0,005
1012	0,006
1012,4	0,006
1012,8	0,006
1013,2	0,006
1013,6	0,006
1014,1	0,006
1014,5	0,006
1014,9	0,006
1015,3	0,006
1015,7	0,007
1016,1	0,007
1016,6	0,007
1017	0,007
1017,4	0,007
1017,8	0,006
1018,2	0,006
1018,6	0,005
1019,1	0,005
1019,5	0,006
1019,9	0,006
1020,3	0,005
1020,7	0,005
1021,1	0,006
1021,6	0,006
1022	0,007
1022,4	0,007
1022,8	0,007
1023,2	0,008
1023,6	0,009
1024,1	0,009
1024,5	0,008
1024,9	0,008
1025,3	0,008
1025,7	0,008
1026,1	0,007
1026,6	0,006
1027	0,006
1027,4	0,006
1027,8	0,005
1028,2	0,005
1028,6	0,005
1029	0,006
1029,5	0,006
1029,9	0,006
1030,3	0,006
1030,7	0,006
1031,1	0,006
1031,5	0,006
1032	0,007
1032,4	0,006
1032,8	0,007
1033,2	0,007
1033,6	0,007
1034	0,006
1034,4	0,005
1034,9	0,004
1035,3	0,005
1035,7	0,005
1036,1	0,005
1036,5	0,005
1036,9	0,005
1037,4	0,006
1037,8	0,006
1038,2	0,007
1038,6	0,007
1039	0,007
1039,4	0,006
1039,8	0,006
1040,3	0,006
1040,7	0,005
1041,1	0,005
1041,5	0,005
1041,9	0,005
1042,3	0,006
1042,7	0,006
1043,2	0,006
1043,6	0,006
1044	0,006
1044,4	0,006
1044,8	0,006
1045,2	0,005
1045,6	0,006
1046,1	0,006
1046,5	0,007
1046,9	0,006
1047,3	0,007
1047,7	0,005
1048,1	0,005
1048,5	0,004
1049	0,005
1049,4	0,004
1049,8	0,005
1050,2	0,004
1050,6	0,006
1051	0,007
1051,4	0,007
1051,9	0,007
1052,3	0,007
1052,7	0,007
1053,1	0,007
1053,5	0,007
1053,9	0,007
1054,3	0,007
1054,8	0,006
1055,2	0,006
1055,6	0,007
1056	0,007
1056,4	0,006
1056,8	0,007
1057,2	0,007
1057,6	0,008
1058,1	0,008
1058,5	0,008
1058,9	0,007
1059,3	0,008
1059,7	0,007
1060,1	0,007
1060,5	0,008
1061	0,008
1061,4	0,007
1061,8	0,007
1062,2	0,007
1062,6	0,007
1063	0,007
1063,4	0,006
1063,8	0,006
1064,3	0,006
1064,7	0,005
1065,1	0,006
1065,5	0,006
1065,9	0,005
1066,3	0,006
1066,7	0,005
1067,1	0,006
1067,6	0,008
1068	0,007
1068,4	0,007
1068,8	0,007
1069,2	0,007
1069,6	0,008
1070	0,008
1070,4	0,007
1070,9	0,008
1071,3	0,008
1071,7	0,009
1072,1	0,007
1072,5	0,007
1072,9	0,006
1073,3	0,004
1073,7	0,004
1074,2	0,004
1074,6	0,004
1075	0,005
1075,4	0,005
1075,8	0,006
1076,2	0,007
1076,6	0,007
1077	0,008
1077,5	0,008
1077,9	0,009
1078,3	0,009
1078,7	0,009
1079,1	0,01
1079,5	0,01
1079,9	0,01
1080,3	0,011
1080,7	0,012
1081,2	0,014
1081,6	0,014
1082	0,012
1082,4	0,014
1082,8	0,013
1083,2	0,012
1083,6	0,011
1084	0,009
1084,5	0,007
1084,9	0,011
1085,3	0,01
1085,7	0,01
1086,1	0,01
1086,5	0,011
1086,9	0,013
1087,3	0,016
1087,7	0,014
1088,2	0,014
1088,6	0,016
1089	0,017
1089,4	0,017
1089,8	0,016
1090,2	0,016
1090,6	0,017
1091	0,016
1091,4	0,015
1091,9	0,013
1092,3	0,015
1092,7	0,017
1093,1	0,016
1093,5	0,013
1093,9	0,017
1094,3	0,015
1094,7	0,016
1095,1	0,015
1095,5	0,01
1096	0,013
1096,4	0,011
1096,8	0,01
1097,2	0,014
1097,6	0,018
1098	0,02
1098,4	0,023
1098,8	0,019
1099,2	0,028
1099,6	0,035
1100,1	0,038
1100,5	0,034
1100,9	0,038
1101,3	0,041
1101,7	0,049
1102,1	0,051
1102,5	0,041
1102,9	0,039
1103,3	0,04
1103,7	0,041
1104,2	0,046
1104,6	0,046
1105	0,043
1105,4	0,058
1105,8	0,071
1106,2	0,087
1106,6	0,1
1107	0,108
1107,4	0,122
1107,8	0,19
1108,3	-0
