Data from Absorbance_102.txt Node
Date: Fri Nov 13 18:43:16 MSK 2020
User: vat
Spectrometer: MAYP114033
Trigger mode: 0
Integration Time (sec): 8,000000E-3
Scans to average: 10
Electric dark correction enabled: true
Nonlinearity correction enabled: false
Boxcar width: 3
XAxis mode: Wavelengths
Number of Pixels in Spectrum: 2068
>>>>>Begin Spectral Data<<<<<
199,4	-0
199,9	1,387
200,4	0,309
200,8	0,152
201,3	0,09
201,8	0,077
202,2	0,092
202,7	0,092
203,2	0,064
203,6	0,054
204,1	0,066
204,6	0,07
205	0,062
205,5	0,05
206	0,036
206,4	0,039
206,9	0,058
207,4	0,053
207,8	0,051
208,3	0,056
208,8	0,052
209,2	0,069
209,7	0,065
210,2	0,047
210,6	0,046
211,1	0,042
211,5	0,041
212	0,05
212,5	0,04
212,9	0,051
213,4	0,063
213,9	0,068
214,3	0,08
214,8	0,073
215,3	0,082
215,7	0,084
216,2	0,073
216,7	0,059
217,1	0,058
217,6	0,049
218,1	0,053
218,5	0,037
219	0,024
219,5	0,037
219,9	0,052
220,4	0,044
220,9	0,052
221,3	0,041
221,8	0,052
222,3	0,074
222,7	0,066
223,2	0,063
223,6	0,075
224,1	0,076
224,6	0,094
225	0,094
225,5	0,078
226	0,086
226,4	0,089
226,9	0,075
227,4	0,069
227,8	0,07
228,3	0,065
228,8	0,077
229,2	0,063
229,7	0,072
230,2	0,077
230,6	0,074
231,1	0,066
231,5	0,07
232	0,065
232,5	0,072
232,9	0,073
233,4	0,096
233,9	0,105
234,3	0,114
234,8	0,119
235,3	0,115
235,7	0,111
236,2	0,119
236,7	0,099
237,1	0,099
237,6	0,099
238,1	0,091
238,5	0,098
239	0,106
239,4	0,103
239,9	0,1
240,4	0,103
240,8	0,107
241,3	0,125
241,8	0,133
242,2	0,14
242,7	0,137
243,2	0,143
243,6	0,147
244,1	0,151
244,6	0,146
245	0,141
245,5	0,151
245,9	0,162
246,4	0,178
246,9	0,184
247,3	0,182
247,8	0,185
248,3	0,198
248,7	0,197
249,2	0,2
249,7	0,195
250,1	0,194
250,6	0,196
251	0,2
251,5	0,201
252	0,2
252,4	0,203
252,9	0,205
253,4	0,206
253,8	0,209
254,3	0,213
254,8	0,215
255,2	0,22
255,7	0,225
256,1	0,233
256,6	0,239
257,1	0,245
257,5	0,25
258	0,258
258,5	0,266
258,9	0,272
259,4	0,28
259,9	0,287
260,3	0,297
260,8	0,307
261,2	0,316
261,7	0,325
262,2	0,335
262,6	0,344
263,1	0,354
263,6	0,364
264	0,374
264,5	0,383
264,9	0,393
265,4	0,404
265,9	0,414
266,3	0,424
266,8	0,433
267,3	0,443
267,7	0,454
268,2	0,464
268,7	0,474
269,1	0,485
269,6	0,496
270	0,507
270,5	0,518
271	0,528
271,4	0,538
271,9	0,547
272,4	0,556
272,8	0,566
273,3	0,576
273,7	0,586
274,2	0,595
274,7	0,604
275,1	0,614
275,6	0,622
276,1	0,63
276,5	0,638
277	0,645
277,4	0,651
277,9	0,658
278,4	0,664
278,8	0,669
279,3	0,673
279,8	0,677
280,2	0,681
280,7	0,685
281,1	0,688
281,6	0,689
282,1	0,691
282,5	0,692
283	0,692
283,4	0,692
283,9	0,69
284,4	0,688
284,8	0,686
285,3	0,683
285,8	0,679
286,2	0,675
286,7	0,67
287,1	0,665
287,6	0,659
288,1	0,653
288,5	0,646
289	0,637
289,5	0,629
289,9	0,619
290,4	0,61
290,8	0,598
291,3	0,588
291,8	0,577
292,2	0,565
292,7	0,553
293,1	0,541
293,6	0,528
294,1	0,515
294,5	0,501
295	0,487
295,5	0,473
295,9	0,459
296,4	0,445
296,8	0,43
297,3	0,415
297,8	0,401
298,2	0,386
298,7	0,372
299,1	0,357
299,6	0,343
300,1	0,33
300,5	0,316
301	0,303
301,5	0,29
301,9	0,277
302,4	0,264
302,8	0,252
303,3	0,24
303,8	0,229
304,2	0,217
304,7	0,206
305,1	0,195
305,6	0,185
306,1	0,176
306,5	0,166
307	0,157
307,4	0,149
307,9	0,141
308,4	0,134
308,8	0,126
309,3	0,119
309,8	0,113
310,2	0,107
310,7	0,102
311,1	0,096
311,6	0,091
312,1	0,086
312,5	0,081
313	0,077
313,4	0,072
313,9	0,068
314,4	0,064
314,8	0,061
315,3	0,058
315,7	0,055
316,2	0,052
316,7	0,049
317,1	0,047
317,6	0,046
318	0,043
318,5	0,042
319	0,04
319,4	0,038
319,9	0,037
320,3	0,035
320,8	0,034
321,3	0,032
321,7	0,031
322,2	0,03
322,6	0,029
323,1	0,028
323,6	0,028
324	0,028
324,5	0,027
324,9	0,026
325,4	0,026
325,9	0,025
326,3	0,024
326,8	0,024
327,2	0,023
327,7	0,023
328,2	0,022
328,6	0,022
329,1	0,021
329,5	0,021
330	0,021
330,5	0,02
330,9	0,02
331,4	0,02
331,8	0,02
332,3	0,02
332,8	0,019
333,2	0,019
333,7	0,019
334,1	0,018
334,6	0,018
335,1	0,018
335,5	0,018
336	0,017
336,4	0,017
336,9	0,017
337,4	0,017
337,8	0,017
338,3	0,017
338,7	0,017
339,2	0,017
339,7	0,017
340,1	0,017
340,6	0,017
341	0,017
341,5	0,016
342	0,016
342,4	0,016
342,9	0,016
343,3	0,016
343,8	0,016
344,2	0,016
344,7	0,016
345,2	0,016
345,6	0,016
346,1	0,017
346,5	0,016
347	0,016
347,5	0,016
347,9	0,016
348,4	0,016
348,8	0,016
349,3	0,015
349,8	0,015
350,2	0,015
350,7	0,015
351,1	0,015
351,6	0,014
352	0,014
352,5	0,014
353	0,014
353,4	0,014
353,9	0,014
354,3	0,013
354,8	0,013
355,3	0,014
355,7	0,014
356,2	0,013
356,6	0,013
357,1	0,014
357,5	0,014
358	0,014
358,5	0,014
358,9	0,014
359,4	0,014
359,8	0,015
360,3	0,014
360,8	0,015
361,2	0,014
361,7	0,014
362,1	0,014
362,6	0,014
363	0,014
363,5	0,014
364	0,014
364,4	0,014
364,9	0,013
365,3	0,013
365,8	0,013
366,3	0,013
366,7	0,013
367,2	0,013
367,6	0,013
368,1	0,013
368,5	0,013
369	0,013
369,5	0,012
369,9	0,012
370,4	0,012
370,8	0,012
371,3	0,012
371,7	0,012
372,2	0,012
372,7	0,012
373,1	0,012
373,6	0,012
374	0,011
374,5	0,012
374,9	0,012
375,4	0,012
375,9	0,012
376,3	0,012
376,8	0,011
377,2	0,012
377,7	0,011
378,2	0,011
378,6	0,011
379,1	0,011
379,5	0,011
380	0,01
380,4	0,01
380,9	0,01
381,4	0,009
381,8	0,009
382,3	0,009
382,7	0,009
383,2	0,01
383,6	0,01
384,1	0,01
384,6	0,011
385	0,01
385,5	0,01
385,9	0,01
386,4	0,01
386,8	0,01
387,3	0,011
387,7	0,011
388,2	0,011
388,7	0,012
389,1	0,011
389,6	0,012
390	0,011
390,5	0,011
390,9	0,011
391,4	0,011
391,9	0,011
392,3	0,011
392,8	0,011
393,2	0,011
393,7	0,011
394,1	0,011
394,6	0,01
395,1	0,01
395,5	0,01
396	0,009
396,4	0,009
396,9	0,009
397,3	0,009
397,8	0,009
398,2	0,008
398,7	0,008
399,2	0,009
399,6	0,009
400,1	0,009
400,5	0,009
401	0,009
401,4	0,009
401,9	0,008
402,4	0,008
402,8	0,008
403,3	0,008
403,7	0,009
404,2	0,008
404,6	0,009
405,1	0,009
405,5	0,009
406	0,008
406,5	0,008
406,9	0,008
407,4	0,008
407,8	0,007
408,3	0,007
408,7	0,008
409,2	0,008
409,6	0,008
410,1	0,008
410,6	0,007
411	0,008
411,5	0,008
411,9	0,008
412,4	0,008
412,8	0,008
413,3	0,008
413,7	0,008
414,2	0,008
414,7	0,009
415,1	0,009
415,6	0,009
416	0,008
416,5	0,009
416,9	0,008
417,4	0,008
417,8	0,009
418,3	0,009
418,8	0,008
419,2	0,008
419,7	0,008
420,1	0,008
420,6	0,009
421	0,009
421,5	0,009
421,9	0,009
422,4	0,009
422,8	0,009
423,3	0,009
423,8	0,009
424,2	0,008
424,7	0,007
425,1	0,007
425,6	0,007
426	0,007
426,5	0,007
426,9	0,007
427,4	0,007
427,9	0,007
428,3	0,007
428,8	0,007
429,2	0,007
429,7	0,007
430,1	0,008
430,6	0,007
431	0,007
431,5	0,008
431,9	0,008
432,4	0,008
432,8	0,008
433,3	0,008
433,8	0,008
434,2	0,008
434,7	0,008
435,1	0,008
435,6	0,008
436	0,007
436,5	0,007
436,9	0,007
437,4	0,007
437,8	0,007
438,3	0,006
438,8	0,007
439,2	0,006
439,7	0,007
440,1	0,007
440,6	0,007
441	0,007
441,5	0,007
441,9	0,007
442,4	0,007
442,8	0,007
443,3	0,007
443,7	0,007
444,2	0,007
444,7	0,007
445,1	0,007
445,6	0,007
446	0,008
446,5	0,007
446,9	0,007
447,4	0,007
447,8	0,007
448,3	0,007
448,7	0,007
449,2	0,006
449,6	0,006
450,1	0,006
450,6	0,006
451	0,007
451,5	0,007
451,9	0,007
452,4	0,007
452,8	0,007
453,3	0,007
453,7	0,007
454,2	0,007
454,6	0,007
455,1	0,007
455,5	0,007
456	0,007
456,4	0,007
456,9	0,007
457,3	0,007
457,8	0,007
458,3	0,007
458,7	0,006
459,2	0,006
459,6	0,006
460,1	0,007
460,5	0,007
461	0,007
461,4	0,007
461,9	0,007
462,3	0,007
462,8	0,007
463,2	0,007
463,7	0,007
464,1	0,006
464,6	0,006
465	0,006
465,5	0,006
466	0,006
466,4	0,006
466,9	0,006
467,3	0,006
467,8	0,007
468,2	0,007
468,7	0,007
469,1	0,007
469,6	0,007
470	0,007
470,5	0,007
470,9	0,007
471,4	0,007
471,8	0,007
472,3	0,007
472,7	0,007
473,2	0,008
473,6	0,007
474,1	0,007
474,5	0,007
475	0,007
475,4	0,007
475,9	0,006
476,4	0,006
476,8	0,005
477,3	0,006
477,7	0,006
478,2	0,006
478,6	0,006
479,1	0,007
479,5	0,007
480	0,007
480,4	0,007
480,9	0,007
481,3	0,007
481,8	0,006
482,2	0,006
482,7	0,006
483,1	0,006
483,6	0,006
484	0,006
484,5	0,006
484,9	0,006
485,4	0,006
485,8	0,006
486,3	0,006
486,7	0,006
487,2	0,006
487,6	0,007
488,1	0,006
488,5	0,006
489	0,006
489,4	0,006
489,9	0,005
490,4	0,006
490,8	0,006
491,3	0,006
491,7	0,007
492,2	0,006
492,6	0,007
493,1	0,007
493,5	0,008
494	0,007
494,4	0,007
494,9	0,006
495,3	0,006
495,8	0,006
496,2	0,006
496,7	0,005
497,1	0,005
497,6	0,006
498	0,006
498,5	0,006
498,9	0,006
499,4	0,005
499,8	0,005
500,3	0,005
500,7	0,005
501,2	0,005
501,6	0,006
502,1	0,006
502,5	0,006
503	0,006
503,4	0,006
503,9	0,006
504,3	0,006
504,8	0,007
505,2	0,006
505,7	0,007
506,1	0,006
506,6	0,006
507	0,005
507,5	0,006
507,9	0,005
508,4	0,005
508,8	0,005
509,3	0,005
509,7	0,005
510,2	0,005
510,6	0,005
511,1	0,005
511,5	0,005
512	0,005
512,4	0,006
512,9	0,006
513,3	0,006
513,8	0,006
514,2	0,006
514,7	0,007
515,1	0,007
515,6	0,006
516	0,006
516,5	0,006
516,9	0,006
517,4	0,005
517,8	0,005
518,3	0,006
518,7	0,005
519,2	0,005
519,6	0,006
520,1	0,006
520,5	0,005
521	0,005
521,4	0,005
521,9	0,006
522,3	0,006
522,8	0,006
523,2	0,006
523,7	0,005
524,1	0,006
524,6	0,005
525	0,005
525,5	0,005
525,9	0,005
526,4	0,004
526,8	0,005
527,3	0,004
527,7	0,004
528,2	0,004
528,6	0,004
529,1	0,004
529,5	0,004
530	0,004
530,4	0,004
530,9	0,005
531,3	0,005
531,8	0,005
532,2	0,005
532,6	0,005
533,1	0,005
533,5	0,005
534	0,005
534,4	0,005
534,9	0,005
535,3	0,005
535,8	0,005
536,2	0,005
536,7	0,005
537,1	0,005
537,6	0,005
538	0,005
538,5	0,005
538,9	0,006
539,4	0,006
539,8	0,006
540,3	0,005
540,7	0,005
541,2	0,005
541,6	0,005
542,1	0,004
542,5	0,004
543	0,004
543,4	0,004
543,9	0,004
544,3	0,004
544,8	0,004
545,2	0,005
545,7	0,004
546,1	0,005
546,5	0,005
547	0,005
547,4	0,005
547,9	0,005
548,3	0,005
548,8	0,005
549,2	0,005
549,7	0,004
550,1	0,004
550,6	0,005
551	0,004
551,5	0,005
551,9	0,005
552,4	0,005
552,8	0,005
553,3	0,004
553,7	0,004
554,2	0,004
554,6	0,004
555,1	0,003
555,5	0,004
555,9	0,004
556,4	0,004
556,8	0,004
557,3	0,004
557,7	0,005
558,2	0,005
558,6	0,005
559,1	0,004
559,5	0,004
560	0,004
560,4	0,004
560,9	0,004
561,3	0,004
561,8	0,004
562,2	0,004
562,7	0,004
563,1	0,004
563,6	0,004
564	0,004
564,4	0,004
564,9	0,004
565,3	0,004
565,8	0,003
566,2	0,003
566,7	0,003
567,1	0,003
567,6	0,004
568	0,003
568,5	0,004
568,9	0,004
569,4	0,004
569,8	0,004
570,3	0,004
570,7	0,004
571,1	0,004
571,6	0,004
572	0,004
572,5	0,004
572,9	0,004
573,4	0,004
573,8	0,004
574,3	0,004
574,7	0,004
575,2	0,004
575,6	0,004
576,1	0,003
576,5	0,003
576,9	0,003
577,4	0,004
577,8	0,003
578,3	0,004
578,7	0,003
579,2	0,003
579,6	0,003
580,1	0,003
580,5	0,003
581	0,003
581,4	0,003
581,9	0,003
582,3	0,004
582,7	0,004
583,2	0,004
583,6	0,003
584,1	0,003
584,5	0,003
585	0,003
585,4	0,003
585,9	0,003
586,3	0,003
586,8	0,003
587,2	0,003
587,6	0,003
588,1	0,003
588,5	0,003
589	0,003
589,4	0,003
589,9	0,003
590,3	0,004
590,8	0,003
591,2	0,003
591,7	0,003
592,1	0,003
592,5	0,003
593	0,003
593,4	0,003
593,9	0,003
594,3	0,003
594,8	0,003
595,2	0,003
595,7	0,003
596,1	0,003
596,6	0,003
597	0,003
597,4	0,003
597,9	0,003
598,3	0,003
598,8	0,003
599,2	0,003
599,7	0,003
600,1	0,003
600,6	0,003
601	0,003
601,4	0,002
601,9	0,002
602,3	0,003
602,8	0,003
603,2	0,003
603,7	0,003
604,1	0,003
604,6	0,003
605	0,003
605,4	0,003
605,9	0,003
606,3	0,003
606,8	0,003
607,2	0,003
607,7	0,003
608,1	0,003
608,6	0,003
609	0,002
609,4	0,002
609,9	0,003
610,3	0,002
610,8	0,002
611,2	0,002
611,7	0,003
612,1	0,003
612,6	0,003
613	0,003
613,4	0,003
613,9	0,003
614,3	0,003
614,8	0,003
615,2	0,003
615,7	0,003
616,1	0,003
616,6	0,003
617	0,003
617,4	0,003
617,9	0,003
618,3	0,003
618,8	0,003
619,2	0,003
619,7	0,004
620,1	0,003
620,5	0,003
621	0,003
621,4	0,003
621,9	0,003
622,3	0,003
622,8	0,003
623,2	0,003
623,6	0,003
624,1	0,003
624,5	0,003
625	0,003
625,4	0,003
625,9	0,003
626,3	0,003
626,8	0,003
627,2	0,003
627,6	0,004
628,1	0,004
628,5	0,004
629	0,003
629,4	0,003
629,9	0,003
630,3	0,003
630,7	0,003
631,2	0,004
631,6	0,003
632,1	0,003
632,5	0,003
633	0,004
633,4	0,004
633,8	0,004
634,3	0,004
634,7	0,004
635,2	0,004
635,6	0,004
636,1	0,004
636,5	0,004
636,9	0,004
637,4	0,003
637,8	0,003
638,3	0,003
638,7	0,003
639,2	0,003
639,6	0,003
640	0,003
640,5	0,003
640,9	0,004
641,4	0,004
641,8	0,004
642,2	0,004
642,7	0,004
643,1	0,004
643,6	0,003
644	0,003
644,5	0,003
644,9	0,003
645,3	0,003
645,8	0,003
646,2	0,004
646,7	0,004
647,1	0,004
647,6	0,003
648	0,003
648,4	0,003
648,9	0,003
649,3	0,003
649,8	0,003
650,2	0,004
650,6	0,003
651,1	0,003
651,5	0,003
652	0,003
652,4	0,003
652,9	0,003
653,3	0,002
653,7	0,001
654,2	0
654,6	0
655,1	-0
655,5	0,001
655,9	0,001
656,4	0,001
656,8	0,002
657,3	0,002
657,7	0,003
658,2	0,005
658,6	0,003
659	0,003
659,5	0,003
659,9	0,003
660,4	0,003
660,8	0,003
661,2	0,003
661,7	0,003
662,1	0,003
662,6	0,003
663	0,003
663,4	0,003
663,9	0,003
664,3	0,003
664,8	0,003
665,2	0,003
665,6	0,003
666,1	0,003
666,5	0,003
667	0,003
667,4	0,003
667,9	0,003
668,3	0,003
668,7	0,004
669,2	0,004
669,6	0,003
670,1	0,003
670,5	0,004
670,9	0,004
671,4	0,004
671,8	0,004
672,3	0,003
672,7	0,003
673,1	0,003
673,6	0,003
674	0,003
674,5	0,003
674,9	0,003
675,3	0,004
675,8	0,004
676,2	0,004
676,7	0,004
677,1	0,004
677,5	0,003
678	0,004
678,4	0,003
678,9	0,003
679,3	0,003
679,7	0,003
680,2	0,003
680,6	0,003
681,1	0,003
681,5	0,003
681,9	0,003
682,4	0,004
682,8	0,004
683,3	0,004
683,7	0,004
684,1	0,004
684,6	0,004
685	0,004
685,5	0,003
685,9	0,003
686,3	0,003
686,8	0,003
687,2	0,003
687,7	0,003
688,1	0,003
688,5	0,003
689	0,003
689,4	0,003
689,9	0,003
690,3	0,004
690,7	0,004
691,2	0,004
691,6	0,003
692	0,003
692,5	0,003
692,9	0,002
693,4	0,002
693,8	0,002
694,2	0,002
694,7	0,002
695,1	0,003
695,6	0,003
696	0,003
696,4	0,003
696,9	0,003
697,3	0,003
697,8	0,003
698,2	0,003
698,6	0,004
699,1	0,004
699,5	0,003
699,9	0,003
700,4	0,003
700,8	0,003
701,3	0,003
701,7	0,003
702,1	0,003
702,6	0,002
703	0,003
703,5	0,003
703,9	0,003
704,3	0,003
704,8	0,003
705,2	0,003
705,6	0,003
706,1	0,003
706,5	0,003
707	0,003
707,4	0,003
707,8	0,003
708,3	0,004
708,7	0,003
709,2	0,003
709,6	0,003
710	0,003
710,5	0,003
710,9	0,003
711,3	0,002
711,8	0,002
712,2	0,002
712,7	0,002
713,1	0,002
713,5	0,002
714	0,003
714,4	0,003
714,8	0,003
715,3	0,003
715,7	0,004
716,2	0,004
716,6	0,004
717	0,003
717,5	0,003
717,9	0,003
718,3	0,003
718,8	0,003
719,2	0,003
719,7	0,003
720,1	0,003
720,5	0,004
721	0,004
721,4	0,003
721,8	0,004
722,3	0,003
722,7	0,003
723,2	0,004
723,6	0,004
724	0,003
724,5	0,003
724,9	0,003
725,3	0,004
725,8	0,003
726,2	0,003
726,7	0,003
727,1	0,003
727,5	0,003
728	0,003
728,4	0,003
728,8	0,003
729,3	0,003
729,7	0,003
730,1	0,003
730,6	0,003
731	0,003
731,5	0,003
731,9	0,004
732,3	0,003
732,8	0,003
733,2	0,003
733,6	0,003
734,1	0,003
734,5	0,003
734,9	0,003
735,4	0,003
735,8	0,003
736,3	0,003
736,7	0,003
737,1	0,003
737,6	0,003
738	0,003
738,4	0,003
738,9	0,003
739,3	0,003
739,7	0,003
740,2	0,003
740,6	0,003
741,1	0,003
741,5	0,003
741,9	0,003
742,4	0,003
742,8	0,003
743,2	0,003
743,7	0,003
744,1	0,003
744,5	0,003
745	0,003
745,4	0,003
745,8	0,003
746,3	0,003
746,7	0,003
747,2	0,003
747,6	0,003
748	0,003
748,5	0,003
748,9	0,003
749,3	0,003
749,8	0,003
750,2	0,003
750,6	0,003
751,1	0,003
751,5	0,003
751,9	0,003
752,4	0,003
752,8	0,003
753,3	0,003
753,7	0,003
754,1	0,003
754,6	0,003
755	0,003
755,4	0,003
755,9	0,003
756,3	0,002
756,7	0,002
757,2	0,002
757,6	0,002
758	0,002
758,5	0,002
758,9	0,002
759,3	0,002
759,8	0,002
760,2	0,002
760,6	0,002
761,1	0,002
761,5	0,002
761,9	0,002
762,4	0,002
762,8	0,002
763,3	0,002
763,7	0,002
764,1	0,002
764,6	0,002
765	0,002
765,4	0,002
765,9	0,003
766,3	0,003
766,7	0,003
767,2	0,003
767,6	0,003
768	0,003
768,5	0,003
768,9	0,003
769,3	0,003
769,8	0,003
770,2	0,003
770,6	0,003
771,1	0,003
771,5	0,002
771,9	0,002
772,4	0,003
772,8	0,002
773,2	0,003
773,7	0,003
774,1	0,003
774,5	0,003
775	0,003
775,4	0,003
775,8	0,002
776,3	0,002
776,7	0,002
777,1	0,002
777,6	0,002
778	0,002
778,4	0,003
778,9	0,003
779,3	0,003
779,7	0,002
780,2	0,002
780,6	0,003
781	0,003
781,5	0,002
781,9	0,002
782,3	0,002
782,8	0,002
783,2	0,002
783,6	0,002
784,1	0,002
784,5	0,002
784,9	0,001
785,4	0,002
785,8	0,002
786,2	0,002
786,7	0,002
787,1	0,002
787,5	0,003
788	0,003
788,4	0,003
788,8	0,003
789,3	0,003
789,7	0,003
790,1	0,003
790,6	0,003
791	0,003
791,4	0,003
791,9	0,003
792,3	0,003
792,7	0,003
793,2	0,003
793,6	0,003
794	0,003
794,5	0,003
794,9	0,003
795,3	0,003
795,8	0,003
796,2	0,003
796,6	0,003
797,1	0,003
797,5	0,003
797,9	0,003
798,4	0,003
798,8	0,003
799,2	0,003
799,7	0,003
800,1	0,003
800,5	0,003
801	0,004
801,4	0,004
801,8	0,004
802,2	0,004
802,7	0,005
803,1	0,005
803,5	0,005
804	0,004
804,4	0,004
804,8	0,004
805,3	0,004
805,7	0,004
806,1	0,004
806,6	0,003
807	0,003
807,4	0,003
807,9	0,003
808,3	0,003
808,7	0,003
809,2	0,003
809,6	0,004
810	0,004
810,4	0,004
810,9	0,004
811,3	0,004
811,7	0,004
812,2	0,004
812,6	0,003
813	0,003
813,5	0,003
813,9	0,003
814,3	0,003
814,8	0,003
815,2	0,003
815,6	0,003
816,1	0,003
816,5	0,003
816,9	0,002
817,3	0,002
817,8	0,002
818,2	0,002
818,6	0,002
819,1	0,002
819,5	0,003
819,9	0,002
820,4	0,002
820,8	0,002
821,2	0,002
821,7	0,002
822,1	0,002
822,5	0,002
822,9	0,003
823,4	0,003
823,8	0,003
824,2	0,004
824,7	0,004
825,1	0,005
825,5	0,004
826	0,004
826,4	0,004
826,8	0,004
827,3	0,004
827,7	0,003
828,1	0,003
828,5	0,003
829	0,003
829,4	0,003
829,8	0,003
830,3	0,003
830,7	0,003
831,1	0,003
831,6	0,003
832	0,003
832,4	0,003
832,8	0,003
833,3	0,003
833,7	0,003
834,1	0,003
834,6	0,003
835	0,003
835,4	0,003
835,8	0,003
836,3	0,003
836,7	0,003
837,1	0,003
837,6	0,003
838	0,003
838,4	0,003
838,9	0,003
839,3	0,003
839,7	0,003
840,1	0,003
840,6	0,003
841	0,003
841,4	0,003
841,9	0,003
842,3	0,003
842,7	0,003
843,1	0,003
843,6	0,003
844	0,003
844,4	0,003
844,9	0,003
845,3	0,003
845,7	0,003
846,2	0,003
846,6	0,003
847	0,003
847,4	0,003
847,9	0,003
848,3	0,003
848,7	0,003
849,2	0,003
849,6	0,003
850	0,003
850,4	0,003
850,9	0,003
851,3	0,003
851,7	0,003
852,2	0,003
852,6	0,003
853	0,003
853,4	0,003
853,9	0,003
854,3	0,003
854,7	0,003
855,2	0,003
855,6	0,003
856	0,003
856,4	0,003
856,9	0,003
857,3	0,003
857,7	0,003
858,2	0,003
858,6	0,004
859	0,004
859,4	0,004
859,9	0,004
860,3	0,004
860,7	0,004
861,1	0,003
861,6	0,003
862	0,003
862,4	0,003
862,9	0,003
863,3	0,003
863,7	0,003
864,1	0,003
864,6	0,003
865	0,003
865,4	0,003
865,9	0,003
866,3	0,003
866,7	0,003
867,1	0,003
867,6	0,003
868	0,003
868,4	0,003
868,8	0,004
869,3	0,003
869,7	0,003
870,1	0,003
870,6	0,003
871	0,003
871,4	0,003
871,8	0,002
872,3	0,003
872,7	0,003
873,1	0,003
873,5	0,003
874	0,003
874,4	0,003
874,8	0,003
875,3	0,002
875,7	0,002
876,1	0,002
876,5	0,002
877	0,002
877,4	0,002
877,8	0,003
878,2	0,003
878,7	0,003
879,1	0,003
879,5	0,003
879,9	0,003
880,4	0,003
880,8	0,003
881,2	0,003
881,7	0,003
882,1	0,003
882,5	0,004
882,9	0,004
883,4	0,004
883,8	0,003
884,2	0,003
884,6	0,003
885,1	0,003
885,5	0,002
885,9	0,002
886,3	0,002
886,8	0,002
887,2	0,002
887,6	0,003
888	0,003
888,5	0,003
888,9	0,003
889,3	0,003
889,8	0,004
890,2	0,004
890,6	0,004
891	0,004
891,5	0,004
891,9	0,004
892,3	0,004
892,7	0,004
893,2	0,004
893,6	0,003
894	0,003
894,4	0,003
894,9	0,003
895,3	0,002
895,7	0,002
896,1	0,002
896,6	0,002
897	0,002
897,4	0,003
897,8	0,003
898,3	0,003
898,7	0,003
899,1	0,003
899,5	0,003
900	0,003
900,4	0,003
900,8	0,003
901,2	0,003
901,7	0,003
902,1	0,003
902,5	0,003
902,9	0,004
903,4	0,003
903,8	0,004
904,2	0,003
904,6	0,003
905,1	0,003
905,5	0,003
905,9	0,003
906,3	0,004
906,8	0,004
907,2	0,004
907,6	0,004
908	0,004
908,5	0,004
908,9	0,004
909,3	0,004
909,7	0,004
910,2	0,003
910,6	0,004
911	0,003
911,4	0,004
911,9	0,004
912,3	0,004
912,7	0,004
913,1	0,004
913,6	0,004
914	0,004
914,4	0,003
914,8	0,003
915,3	0,003
915,7	0,002
916,1	0,002
916,5	0,002
916,9	0,001
917,4	0,001
917,8	0,001
918,2	0,001
918,6	0,001
919,1	0,002
919,5	0,002
919,9	0,002
920,3	0,002
920,8	0,002
921,2	0,003
921,6	0,003
922	0,004
922,5	0,004
922,9	0,005
923,3	0,004
923,7	0,004
924,2	0,004
924,6	0,004
925	0,003
925,4	0,003
925,8	0,003
926,3	0,003
926,7	0,003
927,1	0,003
927,5	0,004
928	0,004
928,4	0,004
928,8	0,004
929,2	0,004
929,7	0,005
930,1	0,005
930,5	0,005
930,9	0,005
931,3	0,005
931,8	0,004
932,2	0,004
932,6	0,004
933	0,004
933,5	0,004
933,9	0,004
934,3	0,003
934,7	0,003
935,2	0,003
935,6	0,003
936	0,003
936,4	0,003
936,8	0,003
937,3	0,003
937,7	0,003
938,1	0,003
938,5	0,003
939	0,003
939,4	0,003
939,8	0,004
940,2	0,003
940,6	0,003
941,1	0,003
941,5	0,003
941,9	0,003
942,3	0,003
942,8	0,004
943,2	0,004
943,6	0,004
944	0,004
944,4	0,004
944,9	0,003
945,3	0,003
945,7	0,003
946,1	0,003
946,6	0,003
947	0,003
947,4	0,002
947,8	0,003
948,2	0,002
948,7	0,003
949,1	0,002
949,5	0,003
949,9	0,003
950,3	0,003
950,8	0,003
951,2	0,003
951,6	0,003
952	0,003
952,5	0,003
952,9	0,003
953,3	0,003
953,7	0,003
954,1	0,003
954,6	0,003
955	0,003
955,4	0,003
955,8	0,003
956,2	0,003
956,7	0,002
957,1	0,002
957,5	0,002
957,9	0,002
958,3	0,002
958,8	0,003
959,2	0,003
959,6	0,003
960	0,002
960,5	0,002
960,9	0,002
961,3	0,003
961,7	0,003
962,1	0,003
962,6	0,004
963	0,004
963,4	0,004
963,8	0,004
964,2	0,004
964,7	0,004
965,1	0,005
965,5	0,004
965,9	0,005
966,3	0,005
966,8	0,005
967,2	0,004
967,6	0,004
968	0,004
968,4	0,004
968,9	0,004
969,3	0,003
969,7	0,004
970,1	0,004
970,5	0,004
971	0,004
971,4	0,004
971,8	0,004
972,2	0,003
972,6	0,003
973,1	0,003
973,5	0,003
973,9	0,003
974,3	0,003
974,7	0,002
975,2	0,002
975,6	0,002
976	0,002
976,4	0,002
976,8	0,002
977,3	0,002
977,7	0,003
978,1	0,003
978,5	0,003
978,9	0,003
979,4	0,003
979,8	0,002
980,2	0,003
980,6	0,002
981	0,002
981,5	0,003
981,9	0,003
982,3	0,003
982,7	0,003
983,1	0,003
983,6	0,003
984	0,004
984,4	0,004
984,8	0,004
985,2	0,004
985,6	0,004
986,1	0,004
986,5	0,004
986,9	0,004
987,3	0,004
987,7	0,004
988,2	0,004
988,6	0,004
989	0,005
989,4	0,003
989,8	0,003
990,3	0,003
990,7	0,002
991,1	0,002
991,5	0,002
991,9	0,002
992,3	0,002
992,8	0,002
993,2	0,002
993,6	0,002
994	0,003
994,4	0,003
994,9	0,002
995,3	0,003
995,7	0,003
996,1	0,003
996,5	0,002
996,9	0,002
997,4	0,002
997,8	0,002
998,2	0,002
998,6	0,002
999	0,001
999,5	0,001
999,9	0,002
1000,3	0,002
1000,7	0,002
1001,1	0,003
1001,5	0,003
1002	0,003
1002,4	0,003
1002,8	0,003
1003,2	0,003
1003,6	0,003
1004	0,002
1004,5	0,003
1004,9	0,003
1005,3	0,004
1005,7	0,003
1006,1	0,003
1006,6	0,003
1007	0,003
1007,4	0,002
1007,8	0,002
1008,2	0,002
1008,6	0,001
1009,1	0,001
1009,5	0,002
1009,9	0,002
1010,3	0,002
1010,7	0,001
1011,1	0,002
1011,6	0,002
1012	0,002
1012,4	0,002
1012,8	0,003
1013,2	0,003
1013,6	0,004
1014,1	0,004
1014,5	0,004
1014,9	0,005
1015,3	0,005
1015,7	0,005
1016,1	0,005
1016,6	0,004
1017	0,004
1017,4	0,004
1017,8	0,003
1018,2	0,003
1018,6	0,002
1019,1	0,002
1019,5	0,002
1019,9	0,002
1020,3	0,001
1020,7	0,001
1021,1	0,001
1021,6	0,001
1022	0,002
1022,4	0,002
1022,8	0,003
1023,2	0,004
1023,6	0,004
1024,1	0,004
1024,5	0,004
1024,9	0,004
1025,3	0,003
1025,7	0,003
1026,1	0,002
1026,6	0,001
1027	0,001
1027,4	0,001
1027,8	0,002
1028,2	0,002
1028,6	0,002
1029	0,002
1029,5	0,002
1029,9	0,002
1030,3	0,003
1030,7	0,002
1031,1	0,003
1031,5	0,003
1032	0,003
1032,4	0,003
1032,8	0,003
1033,2	0,004
1033,6	0,003
1034	0,003
1034,4	0,002
1034,9	0,002
1035,3	0,003
1035,7	0,002
1036,1	0,002
1036,5	0,002
1036,9	0,002
1037,4	0,002
1037,8	0,003
1038,2	0,003
1038,6	0,003
1039	0,003
1039,4	0,003
1039,8	0,003
1040,3	0,004
1040,7	0,003
1041,1	0,003
1041,5	0,003
1041,9	0,003
1042,3	0,003
1042,7	0,003
1043,2	0,004
1043,6	0,004
1044	0,004
1044,4	0,003
1044,8	0,002
1045,2	0,002
1045,6	0,002
1046,1	0,002
1046,5	0,001
1046,9	0,001
1047,3	0,002
1047,7	0,001
1048,1	0,001
1048,5	0,001
1049	0,001
1049,4	0,001
1049,8	0,002
1050,2	0,001
1050,6	0,002
1051	0,003
1051,4	0,002
1051,9	0,002
1052,3	0,002
1052,7	0,002
1053,1	0,002
1053,5	0,003
1053,9	0,003
1054,3	0,003
1054,8	0,003
1055,2	0,003
1055,6	0,004
1056	0,004
1056,4	0,003
1056,8	0,004
1057,2	0,003
1057,6	0,003
1058,1	0,003
1058,5	0,002
1058,9	0,002
1059,3	0,003
1059,7	0,003
1060,1	0,003
1060,5	0,004
1061	0,004
1061,4	0,004
1061,8	0,004
1062,2	0,003
1062,6	0,002
1063	0,003
1063,4	0,001
1063,8	0,001
1064,3	0
1064,7	0
1065,1	0,001
1065,5	0,001
1065,9	0,001
1066,3	0,002
1066,7	0,002
1067,1	0,002
1067,6	0,002
1068	0,002
1068,4	0,001
1068,8	0,001
1069,2	0,001
1069,6	0,003
1070	0,003
1070,4	0,003
1070,9	0,004
1071,3	0,004
1071,7	0,003
1072,1	0,003
1072,5	0,002
1072,9	0,001
1073,3	0,001
1073,7	-0
1074,2	0,002
1074,6	0,002
1075	0,003
1075,4	0,003
1075,8	0,004
1076,2	0,004
1076,6	0,004
1077	0,003
1077,5	0,005
1077,9	0,004
1078,3	0,005
1078,7	0,005
1079,1	0,005
1079,5	0,005
1079,9	0,004
1080,3	0,003
1080,7	0,005
1081,2	0,005
1081,6	0,005
1082	0,004
1082,4	0,005
1082,8	0,006
1083,2	0,007
1083,6	0,004
1084	0,003
1084,5	0,002
1084,9	0,004
1085,3	0,004
1085,7	0,002
1086,1	0
1086,5	0
1086,9	0,001
1087,3	0,002
1087,7	0,001
1088,2	0,001
1088,6	0,001
1089	0,004
1089,4	0,006
1089,8	0,005
1090,2	0,004
1090,6	0,004
1091	0,004
1091,4	0,004
1091,9	-0,003
1092,3	-0,002
1092,7	0
1093,1	0,002
1093,5	0,001
1093,9	0,003
1094,3	0,004
1094,7	0,008
1095,1	0,009
1095,5	0,006
1096	0,011
1096,4	0,012
1096,8	0,006
1097,2	0,01
1097,6	0,013
1098	0,016
1098,4	0,017
1098,8	0,008
1099,2	0,006
1099,6	0,013
1100,1	0,012
1100,5	0,015
1100,9	0,014
1101,3	0,018
1101,7	0,02
1102,1	0,034
1102,5	0,031
1102,9	0,027
1103,3	0,016
1103,7	0,011
1104,2	0,011
1104,6	0,02
1105	0,008
1105,4	0,01
1105,8	0,019
1106,2	0,032
1106,6	0,039
1107	0,047
1107,4	0,047
1107,8	0,077
1108,3	-0
