Data from Absorbance_125.txt Node
Date: Fri Nov 13 19:06:53 MSK 2020
User: vat
Spectrometer: MAYP114033
Trigger mode: 0
Integration Time (sec): 8,000000E-3
Scans to average: 10
Electric dark correction enabled: true
Nonlinearity correction enabled: false
Boxcar width: 3
XAxis mode: Wavelengths
Number of Pixels in Spectrum: 2068
>>>>>Begin Spectral Data<<<<<
199,4	-0
199,9	0,394
200,4	0,174
200,8	0,104
201,3	0,043
201,8	0,035
202,2	0,022
202,7	0,021
203,2	-0,004
203,6	0,007
204,1	0,008
204,6	0,021
205	0,009
205,5	0,018
206	0,01
206,4	0,019
206,9	0,013
207,4	0,009
207,8	0
208,3	0,006
208,8	-0,001
209,2	0,009
209,7	0,008
210,2	-0,01
210,6	-0,012
211,1	-0,004
211,5	-0,004
212	0,005
212,5	0,001
212,9	0,003
213,4	0,006
213,9	0,018
214,3	0,008
214,8	0
215,3	0,001
215,7	0
216,2	0,002
216,7	0,005
217,1	-0,006
217,6	-0,001
218,1	-0,007
218,5	-0,019
219	-0,033
219,5	-0,028
219,9	-0,02
220,4	-0,013
220,9	0,002
221,3	0,006
221,8	0,018
222,3	0,044
222,7	0,043
223,2	0,044
223,6	0,046
224,1	0,031
224,6	0,055
225	0,058
225,5	0,046
226	0,046
226,4	0,043
226,9	0,043
227,4	0,044
227,8	0,033
228,3	0,031
228,8	0,039
229,2	0,029
229,7	0,032
230,2	0,031
230,6	0,034
231,1	0,035
231,5	0,025
232	0,022
232,5	0,037
232,9	0,034
233,4	0,039
233,9	0,035
234,3	0,032
234,8	0,046
235,3	0,046
235,7	0,038
236,2	0,046
236,7	0,038
237,1	0,051
237,6	0,054
238,1	0,05
238,5	0,046
239	0,055
239,4	0,049
239,9	0,058
240,4	0,06
240,8	0,057
241,3	0,063
241,8	0,074
242,2	0,081
242,7	0,078
243,2	0,074
243,6	0,063
244,1	0,066
244,6	0,064
245	0,068
245,5	0,069
245,9	0,081
246,4	0,093
246,9	0,099
247,3	0,103
247,8	0,111
248,3	0,113
248,7	0,118
249,2	0,13
249,7	0,133
250,1	0,142
250,6	0,139
251	0,14
251,5	0,142
252	0,142
252,4	0,142
252,9	0,143
253,4	0,143
253,8	0,146
254,3	0,147
254,8	0,148
255,2	0,151
255,7	0,154
256,1	0,157
256,6	0,16
257,1	0,163
257,5	0,166
258	0,171
258,5	0,174
258,9	0,178
259,4	0,184
259,9	0,189
260,3	0,195
260,8	0,2
261,2	0,204
261,7	0,212
262,2	0,218
262,6	0,223
263,1	0,229
263,6	0,234
264	0,239
264,5	0,246
264,9	0,251
265,4	0,257
265,9	0,262
266,3	0,267
266,8	0,274
267,3	0,279
267,7	0,286
268,2	0,292
268,7	0,298
269,1	0,304
269,6	0,311
270	0,316
270,5	0,323
271	0,328
271,4	0,334
271,9	0,34
272,4	0,346
272,8	0,352
273,3	0,358
273,7	0,364
274,2	0,37
274,7	0,375
275,1	0,379
275,6	0,384
276,1	0,389
276,5	0,393
277	0,397
277,4	0,401
277,9	0,406
278,4	0,409
278,8	0,412
279,3	0,415
279,8	0,418
280,2	0,421
280,7	0,422
281,1	0,423
281,6	0,425
282,1	0,426
282,5	0,425
283	0,425
283,4	0,425
283,9	0,424
284,4	0,423
284,8	0,422
285,3	0,421
285,8	0,419
286,2	0,417
286,7	0,414
287,1	0,411
287,6	0,407
288,1	0,403
288,5	0,398
289	0,393
289,5	0,388
289,9	0,382
290,4	0,377
290,8	0,371
291,3	0,365
291,8	0,359
292,2	0,352
292,7	0,345
293,1	0,337
293,6	0,329
294,1	0,321
294,5	0,313
295	0,305
295,5	0,297
295,9	0,288
296,4	0,28
296,8	0,271
297,3	0,263
297,8	0,254
298,2	0,245
298,7	0,237
299,1	0,228
299,6	0,22
300,1	0,212
300,5	0,203
301	0,195
301,5	0,188
301,9	0,181
302,4	0,173
302,8	0,166
303,3	0,159
303,8	0,153
304,2	0,146
304,7	0,139
305,1	0,133
305,6	0,128
306,1	0,122
306,5	0,117
307	0,111
307,4	0,106
307,9	0,102
308,4	0,098
308,8	0,093
309,3	0,089
309,8	0,085
310,2	0,081
310,7	0,078
311,1	0,074
311,6	0,071
312,1	0,069
312,5	0,066
313	0,063
313,4	0,06
313,9	0,058
314,4	0,055
314,8	0,053
315,3	0,051
315,7	0,049
316,2	0,048
316,7	0,046
317,1	0,045
317,6	0,044
318	0,043
318,5	0,042
319	0,04
319,4	0,039
319,9	0,038
320,3	0,037
320,8	0,035
321,3	0,034
321,7	0,033
322,2	0,032
322,6	0,032
323,1	0,032
323,6	0,031
324	0,031
324,5	0,03
324,9	0,029
325,4	0,029
325,9	0,029
326,3	0,029
326,8	0,028
327,2	0,028
327,7	0,028
328,2	0,027
328,6	0,027
329,1	0,027
329,5	0,026
330	0,026
330,5	0,026
330,9	0,026
331,4	0,026
331,8	0,026
332,3	0,026
332,8	0,026
333,2	0,026
333,7	0,025
334,1	0,025
334,6	0,025
335,1	0,025
335,5	0,024
336	0,024
336,4	0,024
336,9	0,023
337,4	0,023
337,8	0,023
338,3	0,023
338,7	0,023
339,2	0,023
339,7	0,022
340,1	0,022
340,6	0,022
341	0,022
341,5	0,022
342	0,021
342,4	0,021
342,9	0,021
343,3	0,021
343,8	0,021
344,2	0,021
344,7	0,021
345,2	0,021
345,6	0,021
346,1	0,021
346,5	0,02
347	0,02
347,5	0,02
347,9	0,021
348,4	0,021
348,8	0,02
349,3	0,02
349,8	0,019
350,2	0,019
350,7	0,018
351,1	0,018
351,6	0,018
352	0,018
352,5	0,018
353	0,018
353,4	0,018
353,9	0,018
354,3	0,018
354,8	0,018
355,3	0,017
355,7	0,017
356,2	0,017
356,6	0,017
357,1	0,017
357,5	0,017
358	0,017
358,5	0,017
358,9	0,017
359,4	0,017
359,8	0,017
360,3	0,017
360,8	0,017
361,2	0,017
361,7	0,017
362,1	0,017
362,6	0,016
363	0,016
363,5	0,016
364	0,015
364,4	0,015
364,9	0,015
365,3	0,016
365,8	0,016
366,3	0,016
366,7	0,016
367,2	0,016
367,6	0,015
368,1	0,015
368,5	0,015
369	0,014
369,5	0,014
369,9	0,014
370,4	0,015
370,8	0,014
371,3	0,014
371,7	0,014
372,2	0,014
372,7	0,015
373,1	0,014
373,6	0,014
374	0,014
374,5	0,014
374,9	0,014
375,4	0,014
375,9	0,014
376,3	0,014
376,8	0,014
377,2	0,013
377,7	0,013
378,2	0,013
378,6	0,013
379,1	0,012
379,5	0,013
380	0,013
380,4	0,013
380,9	0,013
381,4	0,012
381,8	0,012
382,3	0,012
382,7	0,012
383,2	0,012
383,6	0,012
384,1	0,012
384,6	0,012
385	0,012
385,5	0,012
385,9	0,012
386,4	0,011
386,8	0,012
387,3	0,011
387,7	0,012
388,2	0,012
388,7	0,012
389,1	0,012
389,6	0,012
390	0,012
390,5	0,012
390,9	0,012
391,4	0,011
391,9	0,012
392,3	0,012
392,8	0,012
393,2	0,012
393,7	0,012
394,1	0,012
394,6	0,012
395,1	0,011
395,5	0,011
396	0,011
396,4	0,011
396,9	0,011
397,3	0,011
397,8	0,011
398,2	0,011
398,7	0,01
399,2	0,011
399,6	0,011
400,1	0,011
400,5	0,011
401	0,011
401,4	0,01
401,9	0,01
402,4	0,01
402,8	0,01
403,3	0,01
403,7	0,01
404,2	0,01
404,6	0,01
405,1	0,01
405,5	0,01
406	0,01
406,5	0,01
406,9	0,01
407,4	0,01
407,8	0,009
408,3	0,009
408,7	0,01
409,2	0,009
409,6	0,009
410,1	0,009
410,6	0,008
411	0,008
411,5	0,009
411,9	0,008
412,4	0,009
412,8	0,009
413,3	0,009
413,7	0,009
414,2	0,009
414,7	0,009
415,1	0,009
415,6	0,009
416	0,009
416,5	0,01
416,9	0,009
417,4	0,009
417,8	0,009
418,3	0,009
418,8	0,009
419,2	0,009
419,7	0,009
420,1	0,009
420,6	0,009
421	0,009
421,5	0,008
421,9	0,008
422,4	0,008
422,8	0,009
423,3	0,009
423,8	0,009
424,2	0,008
424,7	0,008
425,1	0,008
425,6	0,008
426	0,007
426,5	0,007
426,9	0,007
427,4	0,007
427,9	0,007
428,3	0,007
428,8	0,007
429,2	0,007
429,7	0,007
430,1	0,008
430,6	0,007
431	0,008
431,5	0,008
431,9	0,008
432,4	0,008
432,8	0,008
433,3	0,008
433,8	0,008
434,2	0,008
434,7	0,008
435,1	0,008
435,6	0,007
436	0,007
436,5	0,007
436,9	0,007
437,4	0,006
437,8	0,006
438,3	0,006
438,8	0,006
439,2	0,006
439,7	0,007
440,1	0,007
440,6	0,007
441	0,007
441,5	0,008
441,9	0,008
442,4	0,007
442,8	0,008
443,3	0,008
443,7	0,007
444,2	0,007
444,7	0,007
445,1	0,007
445,6	0,008
446	0,007
446,5	0,007
446,9	0,007
447,4	0,007
447,8	0,007
448,3	0,008
448,7	0,008
449,2	0,008
449,6	0,008
450,1	0,007
450,6	0,007
451	0,007
451,5	0,007
451,9	0,007
452,4	0,007
452,8	0,007
453,3	0,007
453,7	0,007
454,2	0,007
454,6	0,007
455,1	0,006
455,5	0,006
456	0,006
456,4	0,006
456,9	0,006
457,3	0,006
457,8	0,006
458,3	0,006
458,7	0,006
459,2	0,006
459,6	0,006
460,1	0,006
460,5	0,007
461	0,007
461,4	0,007
461,9	0,007
462,3	0,006
462,8	0,007
463,2	0,007
463,7	0,007
464,1	0,006
464,6	0,006
465	0,006
465,5	0,006
466	0,006
466,4	0,005
466,9	0,005
467,3	0,006
467,8	0,006
468,2	0,006
468,7	0,006
469,1	0,006
469,6	0,006
470	0,006
470,5	0,006
470,9	0,006
471,4	0,006
471,8	0,006
472,3	0,006
472,7	0,006
473,2	0,006
473,6	0,006
474,1	0,006
474,5	0,005
475	0,005
475,4	0,005
475,9	0,005
476,4	0,005
476,8	0,005
477,3	0,005
477,7	0,005
478,2	0,005
478,6	0,006
479,1	0,006
479,5	0,006
480	0,006
480,4	0,006
480,9	0,006
481,3	0,006
481,8	0,005
482,2	0,005
482,7	0,005
483,1	0,005
483,6	0,005
484	0,005
484,5	0,005
484,9	0,005
485,4	0,005
485,8	0,005
486,3	0,005
486,7	0,006
487,2	0,006
487,6	0,005
488,1	0,005
488,5	0,005
489	0,005
489,4	0,005
489,9	0,005
490,4	0,005
490,8	0,006
491,3	0,006
491,7	0,006
492,2	0,006
492,6	0,007
493,1	0,007
493,5	0,007
494	0,006
494,4	0,006
494,9	0,005
495,3	0,005
495,8	0,004
496,2	0,004
496,7	0,004
497,1	0,005
497,6	0,005
498	0,005
498,5	0,005
498,9	0,005
499,4	0,005
499,8	0,005
500,3	0,005
500,7	0,005
501,2	0,005
501,6	0,005
502,1	0,006
502,5	0,006
503	0,006
503,4	0,006
503,9	0,006
504,3	0,006
504,8	0,006
505,2	0,006
505,7	0,005
506,1	0,005
506,6	0,005
507	0,005
507,5	0,004
507,9	0,004
508,4	0,004
508,8	0,004
509,3	0,004
509,7	0,004
510,2	0,004
510,6	0,004
511,1	0,004
511,5	0,004
512	0,003
512,4	0,004
512,9	0,004
513,3	0,004
513,8	0,004
514,2	0,003
514,7	0,004
515,1	0,004
515,6	0,004
516	0,004
516,5	0,003
516,9	0,004
517,4	0,004
517,8	0,004
518,3	0,004
518,7	0,004
519,2	0,004
519,6	0,004
520,1	0,005
520,5	0,005
521	0,005
521,4	0,005
521,9	0,005
522,3	0,005
522,8	0,005
523,2	0,005
523,7	0,005
524,1	0,004
524,6	0,004
525	0,005
525,5	0,004
525,9	0,004
526,4	0,004
526,8	0,004
527,3	0,004
527,7	0,003
528,2	0,003
528,6	0,003
529,1	0,003
529,5	0,003
530	0,003
530,4	0,003
530,9	0,004
531,3	0,004
531,8	0,004
532,2	0,004
532,6	0,004
533,1	0,004
533,5	0,004
534	0,004
534,4	0,004
534,9	0,004
535,3	0,005
535,8	0,004
536,2	0,004
536,7	0,004
537,1	0,004
537,6	0,005
538	0,005
538,5	0,004
538,9	0,005
539,4	0,005
539,8	0,005
540,3	0,005
540,7	0,005
541,2	0,005
541,6	0,005
542,1	0,004
542,5	0,004
543	0,004
543,4	0,003
543,9	0,004
544,3	0,003
544,8	0,004
545,2	0,003
545,7	0,003
546,1	0,003
546,5	0,004
547	0,003
547,4	0,003
547,9	0,003
548,3	0,003
548,8	0,003
549,2	0,003
549,7	0,003
550,1	0,004
550,6	0,004
551	0,005
551,5	0,005
551,9	0,005
552,4	0,004
552,8	0,004
553,3	0,003
553,7	0,003
554,2	0,003
554,6	0,003
555,1	0,003
555,5	0,003
555,9	0,003
556,4	0,004
556,8	0,003
557,3	0,004
557,7	0,004
558,2	0,004
558,6	0,004
559,1	0,004
559,5	0,004
560	0,004
560,4	0,003
560,9	0,003
561,3	0,003
561,8	0,003
562,2	0,003
562,7	0,004
563,1	0,004
563,6	0,004
564	0,004
564,4	0,004
564,9	0,004
565,3	0,004
565,8	0,003
566,2	0,003
566,7	0,003
567,1	0,003
567,6	0,003
568	0,003
568,5	0,003
568,9	0,004
569,4	0,004
569,8	0,004
570,3	0,004
570,7	0,004
571,1	0,004
571,6	0,004
572	0,003
572,5	0,003
572,9	0,004
573,4	0,004
573,8	0,004
574,3	0,004
574,7	0,004
575,2	0,004
575,6	0,004
576,1	0,004
576,5	0,004
576,9	0,004
577,4	0,004
577,8	0,004
578,3	0,004
578,7	0,004
579,2	0,004
579,6	0,004
580,1	0,004
580,5	0,004
581	0,004
581,4	0,004
581,9	0,004
582,3	0,004
582,7	0,004
583,2	0,003
583,6	0,004
584,1	0,003
584,5	0,004
585	0,004
585,4	0,004
585,9	0,004
586,3	0,004
586,8	0,004
587,2	0,004
587,6	0,004
588,1	0,004
588,5	0,004
589	0,004
589,4	0,004
589,9	0,004
590,3	0,005
590,8	0,004
591,2	0,004
591,7	0,004
592,1	0,004
592,5	0,004
593	0,004
593,4	0,004
593,9	0,004
594,3	0,004
594,8	0,004
595,2	0,004
595,7	0,004
596,1	0,004
596,6	0,004
597	0,004
597,4	0,004
597,9	0,004
598,3	0,004
598,8	0,004
599,2	0,004
599,7	0,004
600,1	0,004
600,6	0,004
601	0,004
601,4	0,003
601,9	0,004
602,3	0,004
602,8	0,004
603,2	0,004
603,7	0,004
604,1	0,004
604,6	0,004
605	0,004
605,4	0,004
605,9	0,003
606,3	0,003
606,8	0,003
607,2	0,003
607,7	0,003
608,1	0,003
608,6	0,003
609	0,003
609,4	0,003
609,9	0,003
610,3	0,003
610,8	0,003
611,2	0,003
611,7	0,003
612,1	0,003
612,6	0,003
613	0,003
613,4	0,003
613,9	0,003
614,3	0,003
614,8	0,003
615,2	0,003
615,7	0,003
616,1	0,003
616,6	0,003
617	0,003
617,4	0,003
617,9	0,004
618,3	0,003
618,8	0,003
619,2	0,003
619,7	0,003
620,1	0,003
620,5	0,003
621	0,003
621,4	0,004
621,9	0,004
622,3	0,004
622,8	0,004
623,2	0,003
623,6	0,003
624,1	0,003
624,5	0,003
625	0,003
625,4	0,003
625,9	0,003
626,3	0,003
626,8	0,003
627,2	0,003
627,6	0,003
628,1	0,003
628,5	0,004
629	0,003
629,4	0,004
629,9	0,004
630,3	0,004
630,7	0,004
631,2	0,004
631,6	0,003
632,1	0,003
632,5	0,003
633	0,003
633,4	0,003
633,8	0,003
634,3	0,003
634,7	0,003
635,2	0,003
635,6	0,004
636,1	0,004
636,5	0,004
636,9	0,004
637,4	0,004
637,8	0,003
638,3	0,003
638,7	0,003
639,2	0,004
639,6	0,003
640	0,003
640,5	0,003
640,9	0,003
641,4	0,003
641,8	0,003
642,2	0,003
642,7	0,003
643,1	0,003
643,6	0,003
644	0,003
644,5	0,003
644,9	0,003
645,3	0,003
645,8	0,003
646,2	0,003
646,7	0,003
647,1	0,003
647,6	0,003
648	0,003
648,4	0,003
648,9	0,003
649,3	0,003
649,8	0,003
650,2	0,003
650,6	0,003
651,1	0,003
651,5	0,003
652	0,003
652,4	0,003
652,9	0,003
653,3	0,002
653,7	0,001
654,2	0,001
654,6	0
655,1	0
655,5	0,001
655,9	0,001
656,4	0,002
656,8	0,002
657,3	0,003
657,7	0,003
658,2	0,005
658,6	0,003
659	0,003
659,5	0,002
659,9	0,002
660,4	0,002
660,8	0,002
661,2	0,002
661,7	0,002
662,1	0,002
662,6	0,002
663	0,002
663,4	0,002
663,9	0,002
664,3	0,002
664,8	0,002
665,2	0,003
665,6	0,002
666,1	0,003
666,5	0,003
667	0,002
667,4	0,002
667,9	0,002
668,3	0,002
668,7	0,003
669,2	0,003
669,6	0,003
670,1	0,002
670,5	0,002
670,9	0,002
671,4	0,003
671,8	0,003
672,3	0,002
672,7	0,003
673,1	0,003
673,6	0,003
674	0,003
674,5	0,003
674,9	0,003
675,3	0,003
675,8	0,003
676,2	0,004
676,7	0,004
677,1	0,004
677,5	0,004
678	0,004
678,4	0,004
678,9	0,004
679,3	0,004
679,7	0,003
680,2	0,003
680,6	0,003
681,1	0,003
681,5	0,003
681,9	0,003
682,4	0,003
682,8	0,003
683,3	0,003
683,7	0,003
684,1	0,003
684,6	0,003
685	0,003
685,5	0,003
685,9	0,003
686,3	0,003
686,8	0,003
687,2	0,003
687,7	0,003
688,1	0,002
688,5	0,002
689	0,002
689,4	0,002
689,9	0,002
690,3	0,003
690,7	0,003
691,2	0,003
691,6	0,003
692	0,003
692,5	0,003
692,9	0,003
693,4	0,003
693,8	0,003
694,2	0,003
694,7	0,003
695,1	0,003
695,6	0,002
696	0,002
696,4	0,003
696,9	0,003
697,3	0,003
697,8	0,003
698,2	0,003
698,6	0,003
699,1	0,003
699,5	0,003
699,9	0,003
700,4	0,003
700,8	0,002
701,3	0,002
701,7	0,002
702,1	0,002
702,6	0,002
703	0,002
703,5	0,002
703,9	0,003
704,3	0,003
704,8	0,003
705,2	0,003
705,6	0,003
706,1	0,003
706,5	0,003
707	0,003
707,4	0,003
707,8	0,003
708,3	0,003
708,7	0,002
709,2	0,002
709,6	0,002
710	0,002
710,5	0,002
710,9	0,002
711,3	0,002
711,8	0,002
712,2	0,003
712,7	0,003
713,1	0,003
713,5	0,003
714	0,003
714,4	0,003
714,8	0,003
715,3	0,003
715,7	0,003
716,2	0,003
716,6	0,003
717	0,003
717,5	0,003
717,9	0,003
718,3	0,003
718,8	0,003
719,2	0,003
719,7	0,003
720,1	0,003
720,5	0,003
721	0,003
721,4	0,003
721,8	0,004
722,3	0,003
722,7	0,003
723,2	0,003
723,6	0,003
724	0,002
724,5	0,002
724,9	0,002
725,3	0,003
725,8	0,003
726,2	0,003
726,7	0,003
727,1	0,003
727,5	0,003
728	0,003
728,4	0,003
728,8	0,003
729,3	0,003
729,7	0,003
730,1	0,003
730,6	0,003
731	0,003
731,5	0,003
731,9	0,004
732,3	0,004
732,8	0,003
733,2	0,003
733,6	0,003
734,1	0,003
734,5	0,003
734,9	0,003
735,4	0,003
735,8	0,003
736,3	0,003
736,7	0,003
737,1	0,003
737,6	0,003
738	0,003
738,4	0,003
738,9	0,003
739,3	0,003
739,7	0,003
740,2	0,003
740,6	0,003
741,1	0,003
741,5	0,002
741,9	0,002
742,4	0,002
742,8	0,002
743,2	0,002
743,7	0,002
744,1	0,002
744,5	0,002
745	0,002
745,4	0,002
745,8	0,002
746,3	0,002
746,7	0,002
747,2	0,002
747,6	0,002
748	0,002
748,5	0,002
748,9	0,002
749,3	0,002
749,8	0,003
750,2	0,003
750,6	0,003
751,1	0,003
751,5	0,003
751,9	0,003
752,4	0,003
752,8	0,003
753,3	0,003
753,7	0,003
754,1	0,003
754,6	0,003
755	0,003
755,4	0,003
755,9	0,002
756,3	0,002
756,7	0,002
757,2	0,003
757,6	0,003
758	0,003
758,5	0,003
758,9	0,003
759,3	0,003
759,8	0,003
760,2	0,003
760,6	0,003
761,1	0,003
761,5	0,003
761,9	0,003
762,4	0,003
762,8	0,003
763,3	0,003
763,7	0,003
764,1	0,003
764,6	0,003
765	0,003
765,4	0,003
765,9	0,003
766,3	0,003
766,7	0,003
767,2	0,003
767,6	0,003
768	0,003
768,5	0,003
768,9	0,004
769,3	0,003
769,8	0,003
770,2	0,003
770,6	0,003
771,1	0,003
771,5	0,002
771,9	0,002
772,4	0,003
772,8	0,003
773,2	0,003
773,7	0,003
774,1	0,003
774,5	0,003
775	0,003
775,4	0,003
775,8	0,003
776,3	0,003
776,7	0,003
777,1	0,002
777,6	0,002
778	0,002
778,4	0,002
778,9	0,002
779,3	0,002
779,7	0,002
780,2	0,003
780,6	0,003
781	0,003
781,5	0,003
781,9	0,003
782,3	0,003
782,8	0,003
783,2	0,003
783,6	0,002
784,1	0,002
784,5	0,002
784,9	0,002
785,4	0,002
785,8	0,003
786,2	0,003
786,7	0,003
787,1	0,003
787,5	0,003
788	0,003
788,4	0,004
788,8	0,004
789,3	0,004
789,7	0,004
790,1	0,003
790,6	0,003
791	0,003
791,4	0,003
791,9	0,003
792,3	0,003
792,7	0,003
793,2	0,003
793,6	0,003
794	0,003
794,5	0,003
794,9	0,003
795,3	0,004
795,8	0,004
796,2	0,003
796,6	0,004
797,1	0,003
797,5	0,003
797,9	0,003
798,4	0,002
798,8	0,002
799,2	0,003
799,7	0,002
800,1	0,002
800,5	0,003
801	0,003
801,4	0,003
801,8	0,003
802,2	0,003
802,7	0,003
803,1	0,003
803,5	0,002
804	0,002
804,4	0,002
804,8	0,002
805,3	0,002
805,7	0,002
806,1	0,002
806,6	0,003
807	0,003
807,4	0,003
807,9	0,003
808,3	0,003
808,7	0,003
809,2	0,003
809,6	0,003
810	0,004
810,4	0,004
810,9	0,004
811,3	0,004
811,7	0,004
812,2	0,004
812,6	0,003
813	0,003
813,5	0,002
813,9	0,003
814,3	0,002
814,8	0,002
815,2	0,002
815,6	0,002
816,1	0,002
816,5	0,002
816,9	0,002
817,3	0,002
817,8	0,002
818,2	0,002
818,6	0,003
819,1	0,002
819,5	0,003
819,9	0,002
820,4	0,002
820,8	0,002
821,2	0,002
821,7	0,001
822,1	0,001
822,5	0,001
822,9	0,001
823,4	0,001
823,8	0,002
824,2	0,002
824,7	0,002
825,1	0,003
825,5	0,003
826	0,003
826,4	0,003
826,8	0,003
827,3	0,002
827,7	0,002
828,1	0,002
828,5	0,002
829	0,002
829,4	0,002
829,8	0,003
830,3	0,003
830,7	0,002
831,1	0,002
831,6	0,002
832	0,002
832,4	0,003
832,8	0,002
833,3	0,002
833,7	0,003
834,1	0,003
834,6	0,002
835	0,002
835,4	0,002
835,8	0,002
836,3	0,002
836,7	0,002
837,1	0,002
837,6	0,002
838	0,002
838,4	0,002
838,9	0,002
839,3	0,002
839,7	0,002
840,1	0,002
840,6	0,002
841	0,002
841,4	0,003
841,9	0,003
842,3	0,003
842,7	0,003
843,1	0,003
843,6	0,003
844	0,003
844,4	0,003
844,9	0,003
845,3	0,002
845,7	0,002
846,2	0,002
846,6	0,002
847	0,002
847,4	0,002
847,9	0,002
848,3	0,002
848,7	0,002
849,2	0,002
849,6	0,003
850	0,002
850,4	0,002
850,9	0,003
851,3	0,003
851,7	0,003
852,2	0,003
852,6	0,003
853	0,003
853,4	0,003
853,9	0,003
854,3	0,003
854,7	0,003
855,2	0,003
855,6	0,003
856	0,003
856,4	0,003
856,9	0,003
857,3	0,003
857,7	0,003
858,2	0,003
858,6	0,003
859	0,004
859,4	0,004
859,9	0,004
860,3	0,004
860,7	0,004
861,1	0,003
861,6	0,003
862	0,002
862,4	0,002
862,9	0,002
863,3	0,002
863,7	0,002
864,1	0,003
864,6	0,003
865	0,003
865,4	0,004
865,9	0,003
866,3	0,003
866,7	0,003
867,1	0,003
867,6	0,003
868	0,002
868,4	0,002
868,8	0,003
869,3	0,002
869,7	0,003
870,1	0,003
870,6	0,003
871	0,003
871,4	0,002
871,8	0,002
872,3	0,002
872,7	0,003
873,1	0,003
873,5	0,003
874	0,003
874,4	0,003
874,8	0,003
875,3	0,003
875,7	0,002
876,1	0,002
876,5	0,002
877	0,002
877,4	0,002
877,8	0,002
878,2	0,003
878,7	0,002
879,1	0,002
879,5	0,002
879,9	0,002
880,4	0,002
880,8	0,002
881,2	0,002
881,7	0,003
882,1	0,003
882,5	0,003
882,9	0,003
883,4	0,003
883,8	0,003
884,2	0,003
884,6	0,003
885,1	0,003
885,5	0,003
885,9	0,003
886,3	0,002
886,8	0,002
887,2	0,003
887,6	0,003
888	0,003
888,5	0,003
888,9	0,003
889,3	0,003
889,8	0,003
890,2	0,003
890,6	0,002
891	0,003
891,5	0,003
891,9	0,003
892,3	0,004
892,7	0,003
893,2	0,003
893,6	0,003
894	0,003
894,4	0,003
894,9	0,003
895,3	0,003
895,7	0,003
896,1	0,003
896,6	0,002
897	0,002
897,4	0,002
897,8	0,002
898,3	0,002
898,7	0,002
899,1	0,002
899,5	0,003
900	0,002
900,4	0,003
900,8	0,002
901,2	0,002
901,7	0,002
902,1	0,002
902,5	0,002
902,9	0,003
903,4	0,003
903,8	0,003
904,2	0,003
904,6	0,003
905,1	0,003
905,5	0,003
905,9	0,003
906,3	0,004
906,8	0,004
907,2	0,004
907,6	0,004
908	0,004
908,5	0,004
908,9	0,004
909,3	0,004
909,7	0,004
910,2	0,004
910,6	0,004
911	0,004
911,4	0,004
911,9	0,004
912,3	0,004
912,7	0,003
913,1	0,003
913,6	0,003
914	0,003
914,4	0,003
914,8	0,003
915,3	0,002
915,7	0,003
916,1	0,003
916,5	0,003
916,9	0,002
917,4	0,002
917,8	0,002
918,2	0,002
918,6	0,001
919,1	0,002
919,5	0,001
919,9	0,002
920,3	0,002
920,8	0,002
921,2	0,003
921,6	0,003
922	0,003
922,5	0,004
922,9	0,004
923,3	0,004
923,7	0,004
924,2	0,004
924,6	0,004
925	0,003
925,4	0,003
925,8	0,003
926,3	0,003
926,7	0,003
927,1	0,003
927,5	0,003
928	0,003
928,4	0,003
928,8	0,003
929,2	0,004
929,7	0,004
930,1	0,004
930,5	0,004
930,9	0,004
931,3	0,004
931,8	0,004
932,2	0,003
932,6	0,003
933	0,003
933,5	0,003
933,9	0,003
934,3	0,004
934,7	0,004
935,2	0,004
935,6	0,004
936	0,003
936,4	0,003
936,8	0,003
937,3	0,003
937,7	0,003
938,1	0,003
938,5	0,003
939	0,003
939,4	0,003
939,8	0,003
940,2	0,003
940,6	0,003
941,1	0,003
941,5	0,003
941,9	0,004
942,3	0,004
942,8	0,004
943,2	0,004
943,6	0,004
944	0,003
944,4	0,003
944,9	0,003
945,3	0,003
945,7	0,003
946,1	0,003
946,6	0,002
947	0,002
947,4	0,002
947,8	0,002
948,2	0,002
948,7	0,002
949,1	0,001
949,5	0,002
949,9	0,002
950,3	0,002
950,8	0,003
951,2	0,003
951,6	0,003
952	0,003
952,5	0,004
952,9	0,004
953,3	0,004
953,7	0,003
954,1	0,004
954,6	0,004
955	0,003
955,4	0,003
955,8	0,003
956,2	0,003
956,7	0,002
957,1	0,002
957,5	0,002
957,9	0,002
958,3	0,002
958,8	0,002
959,2	0,002
959,6	0,002
960	0,002
960,5	0,002
960,9	0,003
961,3	0,003
961,7	0,003
962,1	0,003
962,6	0,004
963	0,004
963,4	0,004
963,8	0,004
964,2	0,005
964,7	0,005
965,1	0,005
965,5	0,005
965,9	0,005
966,3	0,005
966,8	0,005
967,2	0,005
967,6	0,004
968	0,004
968,4	0,004
968,9	0,003
969,3	0,003
969,7	0,004
970,1	0,004
970,5	0,004
971	0,004
971,4	0,003
971,8	0,003
972,2	0,003
972,6	0,002
973,1	0,002
973,5	0,002
973,9	0,002
974,3	0,003
974,7	0,003
975,2	0,003
975,6	0,003
976	0,003
976,4	0,003
976,8	0,004
977,3	0,003
977,7	0,003
978,1	0,003
978,5	0,003
978,9	0,003
979,4	0,003
979,8	0,003
980,2	0,003
980,6	0,004
981	0,003
981,5	0,004
981,9	0,003
982,3	0,003
982,7	0,003
983,1	0,002
983,6	0,002
984	0,002
984,4	0,002
984,8	0,003
985,2	0,003
985,6	0,003
986,1	0,003
986,5	0,004
986,9	0,004
987,3	0,004
987,7	0,003
988,2	0,003
988,6	0,003
989	0,003
989,4	0,002
989,8	0,002
990,3	0,002
990,7	0,002
991,1	0,002
991,5	0,001
991,9	0,002
992,3	0,002
992,8	0,001
993,2	0,001
993,6	0,001
994	0,002
994,4	0,001
994,9	0,001
995,3	0,001
995,7	0,002
996,1	0,002
996,5	0,002
996,9	0,002
997,4	0,002
997,8	0,002
998,2	0,002
998,6	0,001
999	0,001
999,5	0,001
999,9	0
1000,3	0
1000,7	0
1001,1	0,001
1001,5	0,001
1002	0,001
1002,4	0,002
1002,8	0,002
1003,2	0,002
1003,6	0,002
1004	0,002
1004,5	0,002
1004,9	0,002
1005,3	0,002
1005,7	0,002
1006,1	0,002
1006,6	0,002
1007	0,002
1007,4	0,002
1007,8	0,002
1008,2	0,002
1008,6	0,002
1009,1	0,002
1009,5	0,002
1009,9	0,002
1010,3	0,002
1010,7	0,002
1011,1	0,003
1011,6	0,003
1012	0,004
1012,4	0,004
1012,8	0,003
1013,2	0,003
1013,6	0,003
1014,1	0,003
1014,5	0,003
1014,9	0,003
1015,3	0,003
1015,7	0,003
1016,1	0,003
1016,6	0,003
1017	0,004
1017,4	0,003
1017,8	0,002
1018,2	0,002
1018,6	0,002
1019,1	0,002
1019,5	0,002
1019,9	0,001
1020,3	0,001
1020,7	0,001
1021,1	0,002
1021,6	0,001
1022	0,001
1022,4	0,002
1022,8	0,002
1023,2	0,004
1023,6	0,004
1024,1	0,004
1024,5	0,004
1024,9	0,003
1025,3	0,003
1025,7	0,003
1026,1	0,002
1026,6	0,002
1027	0,002
1027,4	0,002
1027,8	0,002
1028,2	0,003
1028,6	0,003
1029	0,003
1029,5	0,003
1029,9	0,003
1030,3	0,003
1030,7	0,003
1031,1	0,003
1031,5	0,003
1032	0,003
1032,4	0,003
1032,8	0,003
1033,2	0,002
1033,6	0,002
1034	0,001
1034,4	0,001
1034,9	0,001
1035,3	0,001
1035,7	0,002
1036,1	0,002
1036,5	0,003
1036,9	0,003
1037,4	0,004
1037,8	0,004
1038,2	0,005
1038,6	0,005
1039	0,004
1039,4	0,003
1039,8	0,002
1040,3	0,002
1040,7	0,002
1041,1	0,001
1041,5	0
1041,9	0,001
1042,3	0,002
1042,7	0,002
1043,2	0,002
1043,6	0,001
1044	0,001
1044,4	0,001
1044,8	0,001
1045,2	0,001
1045,6	0,001
1046,1	0,001
1046,5	0,002
1046,9	0,002
1047,3	0,001
1047,7	0,001
1048,1	-0
1048,5	0
1049	0
1049,4	-0
1049,8	0
1050,2	-0
1050,6	0,001
1051	0,002
1051,4	0,002
1051,9	0,002
1052,3	0,002
1052,7	0,002
1053,1	0,003
1053,5	0,003
1053,9	0,002
1054,3	0,002
1054,8	0,002
1055,2	0,003
1055,6	0,002
1056	0,002
1056,4	0,001
1056,8	0,002
1057,2	0,002
1057,6	0,003
1058,1	0,002
1058,5	0,002
1058,9	0,001
1059,3	0,002
1059,7	0,002
1060,1	0,002
1060,5	0,002
1061	0,002
1061,4	0,002
1061,8	0,003
1062,2	0,002
1062,6	0,001
1063	0,002
1063,4	0,001
1063,8	0,001
1064,3	0
1064,7	-0,002
1065,1	-0,001
1065,5	-0,001
1065,9	-0,002
1066,3	-0,001
1066,7	-0,001
1067,1	-0,001
1067,6	0,001
1068	-0
1068,4	-0
1068,8	-0,001
1069,2	-0,001
1069,6	-0
1070	-0
1070,4	0,001
1070,9	0,002
1071,3	0,002
1071,7	0,003
1072,1	0,001
1072,5	0,001
1072,9	-0
1073,3	-0,001
1073,7	-0,001
1074,2	-0
1074,6	-0
1075	0
1075,4	0
1075,8	0
1076,2	-0
1076,6	-0
1077	-0,001
1077,5	0
1077,9	0
1078,3	0,001
1078,7	0,002
1079,1	0,004
1079,5	0,002
1079,9	0,002
1080,3	0,001
1080,7	0,001
1081,2	0,002
1081,6	0,001
1082	0
1082,4	0,003
1082,8	0,002
1083,2	0,003
1083,6	0,003
1084	0,001
1084,5	0
1084,9	0,001
1085,3	0,001
1085,7	0,001
1086,1	0
1086,5	0,003
1086,9	0,003
1087,3	0,004
1087,7	0,004
1088,2	0,003
1088,6	0,004
1089	0,005
1089,4	0,002
1089,8	0,003
1090,2	0,002
1090,6	0,001
1091	0
1091,4	-0
1091,9	-0,001
1092,3	-0
1092,7	-0,001
1093,1	-0
1093,5	-0,003
1093,9	-0,001
1094,3	-0,004
1094,7	-0,006
1095,1	-0,006
1095,5	-0,008
1096	-0,007
1096,4	-0,012
1096,8	-0,016
1097,2	-0,015
1097,6	-0,016
1098	-0,015
1098,4	-0,011
1098,8	-0,016
1099,2	-0,011
1099,6	-0,001
1100,1	0,002
1100,5	0,002
1100,9	-0,001
1101,3	-0,001
1101,7	0,004
1102,1	0,011
1102,5	0,003
1102,9	-0,002
1103,3	-0,011
1103,7	-0,009
1104,2	-0,006
1104,6	-0,004
1105	-0,014
1105,4	-0,013
1105,8	-0,007
1106,2	0,01
1106,6	0,015
1107	0,016
1107,4	0,007
1107,8	0,028
1108,3	0,355
