Data from Absorbance_046.txt Node
Date: Fri Nov 13 13:43:08 MSK 2020
User: vat
Spectrometer: MAYP114033
Trigger mode: 0
Integration Time (sec): 8,000000E-3
Scans to average: 10
Electric dark correction enabled: true
Nonlinearity correction enabled: false
Boxcar width: 3
XAxis mode: Wavelengths
Number of Pixels in Spectrum: 2068
>>>>>Begin Spectral Data<<<<<
199,4	-0
199,9	-0
200,4	0,938
200,8	0,537
201,3	0,206
201,8	0,192
202,2	0,185
202,7	0,188
203,2	0,184
203,6	0,178
204,1	0,16
204,6	0,171
205	0,159
205,5	0,152
206	0,138
206,4	0,135
206,9	0,142
207,4	0,143
207,8	0,138
208,3	0,149
208,8	0,159
209,2	0,149
209,7	0,154
210,2	0,16
210,6	0,15
211,1	0,162
211,5	0,164
212	0,178
212,5	0,196
212,9	0,199
213,4	0,188
213,9	0,217
214,3	0,195
214,8	0,205
215,3	0,191
215,7	0,182
216,2	0,18
216,7	0,208
217,1	0,192
217,6	0,194
218,1	0,19
218,5	0,202
219	0,227
219,5	0,228
219,9	0,196
220,4	0,186
220,9	0,186
221,3	0,174
221,8	0,179
222,3	0,154
222,7	0,144
223,2	0,157
223,6	0,173
224,1	0,153
224,6	0,153
225	0,15
225,5	0,159
226	0,158
226,4	0,139
226,9	0,117
227,4	0,16
227,8	0,148
228,3	0,139
228,8	0,153
229,2	0,161
229,7	0,177
230,2	0,2
230,6	0,193
231,1	0,204
231,5	0,206
232	0,19
232,5	0,201
232,9	0,208
233,4	0,215
233,9	0,203
234,3	0,212
234,8	0,227
235,3	0,245
235,7	0,236
236,2	0,248
236,7	0,231
237,1	0,253
237,6	0,256
238,1	0,243
238,5	0,235
239	0,242
239,4	0,232
239,9	0,259
240,4	0,249
240,8	0,27
241,3	0,289
241,8	0,289
242,2	0,284
242,7	0,285
243,2	0,29
243,6	0,301
244,1	0,299
244,6	0,296
245	0,308
245,5	0,322
245,9	0,332
246,4	0,325
246,9	0,34
247,3	0,361
247,8	0,366
248,3	0,38
248,7	0,411
249,2	0,428
249,7	0,431
250,1	0,436
250,6	0,433
251	0,439
251,5	0,448
252	0,445
252,4	0,447
252,9	0,454
253,4	0,462
253,8	0,471
254,3	0,48
254,8	0,486
255,2	0,496
255,7	0,51
256,1	0,522
256,6	0,534
257,1	0,548
257,5	0,562
258	0,579
258,5	0,595
258,9	0,612
259,4	0,629
259,9	0,647
260,3	0,663
260,8	0,682
261,2	0,701
261,7	0,722
262,2	0,74
262,6	0,759
263,1	0,78
263,6	0,801
264	0,822
264,5	0,843
264,9	0,863
265,4	0,884
265,9	0,906
266,3	0,928
266,8	0,95
267,3	0,97
267,7	0,99
268,2	1,01
268,7	1,032
269,1	1,052
269,6	1,072
270	1,095
270,5	1,117
271	1,14
271,4	1,16
271,9	1,178
272,4	1,198
272,8	1,219
273,3	1,237
273,7	1,254
274,2	1,272
274,7	1,289
275,1	1,309
275,6	1,328
276,1	1,343
276,5	1,357
277	1,368
277,4	1,381
277,9	1,392
278,4	1,399
278,8	1,408
279,3	1,417
279,8	1,427
280,2	1,436
280,7	1,443
281,1	1,449
281,6	1,454
282,1	1,458
282,5	1,457
283	1,455
283,4	1,453
283,9	1,448
284,4	1,447
284,8	1,443
285,3	1,435
285,8	1,427
286,2	1,416
286,7	1,405
287,1	1,394
287,6	1,38
288,1	1,364
288,5	1,35
289	1,336
289,5	1,32
289,9	1,303
290,4	1,283
290,8	1,263
291,3	1,242
291,8	1,219
292,2	1,194
292,7	1,17
293,1	1,145
293,6	1,119
294,1	1,092
294,5	1,065
295	1,037
295,5	1,009
295,9	0,98
296,4	0,951
296,8	0,922
297,3	0,892
297,8	0,864
298,2	0,834
298,7	0,805
299,1	0,775
299,6	0,747
300,1	0,719
300,5	0,692
301	0,665
301,5	0,638
301,9	0,611
302,4	0,587
302,8	0,562
303,3	0,537
303,8	0,514
304,2	0,491
304,7	0,469
305,1	0,448
305,6	0,427
306,1	0,408
306,5	0,389
307	0,371
307,4	0,354
307,9	0,337
308,4	0,322
308,8	0,307
309,3	0,293
309,8	0,279
310,2	0,266
310,7	0,254
311,1	0,242
311,6	0,231
312,1	0,222
312,5	0,211
313	0,202
313,4	0,194
313,9	0,186
314,4	0,178
314,8	0,171
315,3	0,164
315,7	0,158
316,2	0,152
316,7	0,146
317,1	0,141
317,6	0,136
318	0,132
318,5	0,128
319	0,124
319,4	0,12
319,9	0,117
320,3	0,114
320,8	0,11
321,3	0,108
321,7	0,105
322,2	0,102
322,6	0,1
323,1	0,098
323,6	0,096
324	0,095
324,5	0,093
324,9	0,091
325,4	0,09
325,9	0,088
326,3	0,087
326,8	0,086
327,2	0,085
327,7	0,084
328,2	0,082
328,6	0,081
329,1	0,08
329,5	0,078
330	0,077
330,5	0,076
330,9	0,075
331,4	0,074
331,8	0,073
332,3	0,073
332,8	0,072
333,2	0,072
333,7	0,071
334,1	0,07
334,6	0,069
335,1	0,069
335,5	0,069
336	0,068
336,4	0,067
336,9	0,066
337,4	0,066
337,8	0,065
338,3	0,065
338,7	0,064
339,2	0,064
339,7	0,063
340,1	0,062
340,6	0,062
341	0,062
341,5	0,061
342	0,061
342,4	0,061
342,9	0,06
343,3	0,06
343,8	0,059
344,2	0,059
344,7	0,058
345,2	0,057
345,6	0,057
346,1	0,056
346,5	0,056
347	0,055
347,5	0,055
347,9	0,054
348,4	0,054
348,8	0,053
349,3	0,053
349,8	0,052
350,2	0,052
350,7	0,052
351,1	0,052
351,6	0,051
352	0,051
352,5	0,051
353	0,051
353,4	0,051
353,9	0,05
354,3	0,049
354,8	0,049
355,3	0,048
355,7	0,048
356,2	0,048
356,6	0,047
357,1	0,047
357,5	0,046
358	0,046
358,5	0,046
358,9	0,045
359,4	0,046
359,8	0,046
360,3	0,045
360,8	0,045
361,2	0,044
361,7	0,044
362,1	0,043
362,6	0,043
363	0,042
363,5	0,041
364	0,041
364,4	0,041
364,9	0,041
365,3	0,041
365,8	0,04
366,3	0,04
366,7	0,04
367,2	0,04
367,6	0,04
368,1	0,039
368,5	0,038
369	0,038
369,5	0,038
369,9	0,037
370,4	0,037
370,8	0,036
371,3	0,036
371,7	0,036
372,2	0,036
372,7	0,036
373,1	0,036
373,6	0,035
374	0,035
374,5	0,035
374,9	0,035
375,4	0,034
375,9	0,034
376,3	0,033
376,8	0,033
377,2	0,033
377,7	0,033
378,2	0,032
378,6	0,032
379,1	0,032
379,5	0,032
380	0,031
380,4	0,031
380,9	0,031
381,4	0,03
381,8	0,03
382,3	0,03
382,7	0,03
383,2	0,03
383,6	0,029
384,1	0,029
384,6	0,03
385	0,029
385,5	0,029
385,9	0,029
386,4	0,029
386,8	0,028
387,3	0,028
387,7	0,027
388,2	0,027
388,7	0,027
389,1	0,026
389,6	0,026
390	0,026
390,5	0,026
390,9	0,027
391,4	0,027
391,9	0,026
392,3	0,026
392,8	0,026
393,2	0,026
393,7	0,025
394,1	0,025
394,6	0,025
395,1	0,025
395,5	0,025
396	0,025
396,4	0,025
396,9	0,024
397,3	0,024
397,8	0,024
398,2	0,023
398,7	0,023
399,2	0,023
399,6	0,023
400,1	0,023
400,5	0,023
401	0,023
401,4	0,022
401,9	0,022
402,4	0,022
402,8	0,022
403,3	0,022
403,7	0,022
404,2	0,021
404,6	0,022
405,1	0,021
405,5	0,021
406	0,021
406,5	0,02
406,9	0,021
407,4	0,02
407,8	0,02
408,3	0,02
408,7	0,02
409,2	0,02
409,6	0,02
410,1	0,019
410,6	0,019
411	0,019
411,5	0,019
411,9	0,019
412,4	0,019
412,8	0,019
413,3	0,019
413,7	0,019
414,2	0,019
414,7	0,019
415,1	0,019
415,6	0,018
416	0,018
416,5	0,018
416,9	0,017
417,4	0,017
417,8	0,017
418,3	0,017
418,8	0,018
419,2	0,017
419,7	0,018
420,1	0,018
420,6	0,017
421	0,017
421,5	0,017
421,9	0,016
422,4	0,016
422,8	0,016
423,3	0,015
423,8	0,015
424,2	0,016
424,7	0,016
425,1	0,016
425,6	0,015
426	0,015
426,5	0,015
426,9	0,015
427,4	0,015
427,9	0,014
428,3	0,015
428,8	0,015
429,2	0,014
429,7	0,014
430,1	0,014
430,6	0,014
431	0,014
431,5	0,013
431,9	0,014
432,4	0,014
432,8	0,014
433,3	0,014
433,8	0,014
434,2	0,015
434,7	0,014
435,1	0,014
435,6	0,013
436	0,013
436,5	0,014
436,9	0,013
437,4	0,013
437,8	0,013
438,3	0,014
438,8	0,014
439,2	0,014
439,7	0,013
440,1	0,013
440,6	0,013
441	0,013
441,5	0,012
441,9	0,012
442,4	0,012
442,8	0,012
443,3	0,012
443,7	0,012
444,2	0,012
444,7	0,012
445,1	0,012
445,6	0,011
446	0,011
446,5	0,012
446,9	0,012
447,4	0,012
447,8	0,012
448,3	0,012
448,7	0,012
449,2	0,012
449,6	0,012
450,1	0,012
450,6	0,012
451	0,012
451,5	0,012
451,9	0,011
452,4	0,011
452,8	0,011
453,3	0,011
453,7	0,01
454,2	0,011
454,6	0,01
455,1	0,011
455,5	0,011
456	0,011
456,4	0,011
456,9	0,011
457,3	0,011
457,8	0,011
458,3	0,01
458,7	0,01
459,2	0,01
459,6	0,01
460,1	0,01
460,5	0,01
461	0,01
461,4	0,01
461,9	0,01
462,3	0,01
462,8	0,01
463,2	0,009
463,7	0,009
464,1	0,009
464,6	0,009
465	0,009
465,5	0,009
466	0,009
466,4	0,009
466,9	0,009
467,3	0,009
467,8	0,009
468,2	0,008
468,7	0,008
469,1	0,009
469,6	0,009
470	0,008
470,5	0,009
470,9	0,009
471,4	0,009
471,8	0,009
472,3	0,009
472,7	0,009
473,2	0,009
473,6	0,008
474,1	0,008
474,5	0,008
475	0,008
475,4	0,008
475,9	0,008
476,4	0,008
476,8	0,009
477,3	0,009
477,7	0,009
478,2	0,009
478,6	0,009
479,1	0,009
479,5	0,009
480	0,008
480,4	0,008
480,9	0,008
481,3	0,007
481,8	0,008
482,2	0,008
482,7	0,008
483,1	0,008
483,6	0,008
484	0,009
484,5	0,009
484,9	0,007
485,4	0,007
485,8	0,006
486,3	0,006
486,7	0,006
487,2	0,005
487,6	0,005
488,1	0,006
488,5	0,008
489	0,007
489,4	0,007
489,9	0,007
490,4	0,006
490,8	0,007
491,3	0,007
491,7	0,007
492,2	0,007
492,6	0,007
493,1	0,008
493,5	0,007
494	0,007
494,4	0,007
494,9	0,007
495,3	0,007
495,8	0,006
496,2	0,007
496,7	0,007
497,1	0,006
497,6	0,006
498	0,006
498,5	0,006
498,9	0,006
499,4	0,006
499,8	0,006
500,3	0,006
500,7	0,006
501,2	0,006
501,6	0,006
502,1	0,005
502,5	0,005
503	0,005
503,4	0,005
503,9	0,005
504,3	0,005
504,8	0,005
505,2	0,005
505,7	0,006
506,1	0,006
506,6	0,006
507	0,007
507,5	0,006
507,9	0,006
508,4	0,007
508,8	0,006
509,3	0,007
509,7	0,007
510,2	0,006
510,6	0,007
511,1	0,006
511,5	0,006
512	0,006
512,4	0,006
512,9	0,005
513,3	0,005
513,8	0,005
514,2	0,006
514,7	0,006
515,1	0,005
515,6	0,005
516	0,005
516,5	0,005
516,9	0,005
517,4	0,005
517,8	0,005
518,3	0,005
518,7	0,005
519,2	0,005
519,6	0,005
520,1	0,005
520,5	0,005
521	0,004
521,4	0,005
521,9	0,005
522,3	0,005
522,8	0,005
523,2	0,005
523,7	0,005
524,1	0,005
524,6	0,005
525	0,005
525,5	0,004
525,9	0,004
526,4	0,004
526,8	0,004
527,3	0,004
527,7	0,004
528,2	0,004
528,6	0,005
529,1	0,005
529,5	0,005
530	0,005
530,4	0,005
530,9	0,005
531,3	0,004
531,8	0,005
532,2	0,005
532,6	0,005
533,1	0,005
533,5	0,004
534	0,004
534,4	0,005
534,9	0,004
535,3	0,004
535,8	0,004
536,2	0,004
536,7	0,005
537,1	0,005
537,6	0,004
538	0,004
538,5	0,004
538,9	0,005
539,4	0,004
539,8	0,004
540,3	0,004
540,7	0,005
541,2	0,004
541,6	0,004
542,1	0,004
542,5	0,004
543	0,003
543,4	0,003
543,9	0,003
544,3	0,003
544,8	0,002
545,2	0,003
545,7	0,004
546,1	0,004
546,5	0,004
547	0,003
547,4	0,003
547,9	0,004
548,3	0,004
548,8	0,003
549,2	0,003
549,7	0,004
550,1	0,004
550,6	0,004
551	0,004
551,5	0,004
551,9	0,004
552,4	0,004
552,8	0,004
553,3	0,003
553,7	0,003
554,2	0,003
554,6	0,004
555,1	0,003
555,5	0,003
555,9	0,003
556,4	0,003
556,8	0,003
557,3	0,004
557,7	0,004
558,2	0,004
558,6	0,005
559,1	0,004
559,5	0,005
560	0,004
560,4	0,004
560,9	0,004
561,3	0,003
561,8	0,003
562,2	0,003
562,7	0,002
563,1	0,003
563,6	0,003
564	0,003
564,4	0,003
564,9	0,004
565,3	0,004
565,8	0,004
566,2	0,004
566,7	0,004
567,1	0,004
567,6	0,004
568	0,004
568,5	0,004
568,9	0,003
569,4	0,003
569,8	0,003
570,3	0,003
570,7	0,002
571,1	0,003
571,6	0,003
572	0,003
572,5	0,003
572,9	0,003
573,4	0,003
573,8	0,003
574,3	0,003
574,7	0,003
575,2	0,003
575,6	0,003
576,1	0,003
576,5	0,003
576,9	0,002
577,4	0,003
577,8	0,002
578,3	0,002
578,7	0,002
579,2	0,003
579,6	0,003
580,1	0,003
580,5	0,003
581	0,002
581,4	0,002
581,9	0,002
582,3	0,001
582,7	0,002
583,2	0,002
583,6	0,002
584,1	0,003
584,5	0,003
585	0,003
585,4	0,003
585,9	0,003
586,3	0,003
586,8	0,003
587,2	0,003
587,6	0,003
588,1	0,003
588,5	0,002
589	0,002
589,4	0,002
589,9	0,003
590,3	0,003
590,8	0,003
591,2	0,003
591,7	0,003
592,1	0,003
592,5	0,003
593	0,002
593,4	0,002
593,9	0,002
594,3	0,001
594,8	0,002
595,2	0,002
595,7	0,002
596,1	0,002
596,6	0,002
597	0,002
597,4	0,003
597,9	0,003
598,3	0,003
598,8	0,002
599,2	0,003
599,7	0,002
600,1	0,002
600,6	0,002
601	0,002
601,4	0,002
601,9	0,002
602,3	0,001
602,8	0,002
603,2	0,002
603,7	0,002
604,1	0,002
604,6	0,002
605	0,002
605,4	0,002
605,9	0,002
606,3	0,002
606,8	0,002
607,2	0,002
607,7	0,002
608,1	0,002
608,6	0,003
609	0,003
609,4	0,003
609,9	0,003
610,3	0,002
610,8	0,003
611,2	0,002
611,7	0,002
612,1	0,002
612,6	0,002
613	0,002
613,4	0,002
613,9	0,001
614,3	0,002
614,8	0,001
615,2	0,002
615,7	0,002
616,1	0,002
616,6	0,002
617	0,002
617,4	0,002
617,9	0,003
618,3	0,002
618,8	0,002
619,2	0,002
619,7	0,002
620,1	0,002
620,5	0,002
621	0,002
621,4	0,002
621,9	0,002
622,3	0,002
622,8	0,002
623,2	0,002
623,6	0,002
624,1	0,001
624,5	0,002
625	0,001
625,4	0,001
625,9	0,001
626,3	0,001
626,8	0,001
627,2	0,001
627,6	0,001
628,1	0,001
628,5	0,002
629	0,001
629,4	0,002
629,9	0,002
630,3	0,002
630,7	0,002
631,2	0,002
631,6	0,002
632,1	0,002
632,5	0,002
633	0,002
633,4	0,002
633,8	0,002
634,3	0,002
634,7	0,003
635,2	0,003
635,6	0,002
636,1	0,002
636,5	0,002
636,9	0,002
637,4	0,002
637,8	0,002
638,3	0,001
638,7	0,002
639,2	0,002
639,6	0,002
640	0,001
640,5	0,002
640,9	0,002
641,4	0,002
641,8	0,002
642,2	0,002
642,7	0,002
643,1	0,002
643,6	0,002
644	0,002
644,5	0,002
644,9	0,002
645,3	0,002
645,8	0,002
646,2	0,002
646,7	0,002
647,1	0,003
647,6	0,002
648	0,002
648,4	0,002
648,9	0,002
649,3	0,002
649,8	0,002
650,2	0,002
650,6	0,002
651,1	0,002
651,5	0,002
652	0,002
652,4	0,002
652,9	0,002
653,3	0,004
653,7	0,009
654,2	0,006
654,6	0,005
655,1	0,004
655,5	0,002
655,9	0,002
656,4	0,001
656,8	-0,001
657,3	-0,002
657,7	-0,002
658,2	-0,003
658,6	0,001
659	0,001
659,5	0,001
659,9	0,001
660,4	0,002
660,8	0,002
661,2	0,002
661,7	0,002
662,1	0,002
662,6	0,002
663	0,001
663,4	0,001
663,9	0,002
664,3	0,002
664,8	0,001
665,2	0,002
665,6	0,002
666,1	0,002
666,5	0,002
667	0,001
667,4	0,002
667,9	0,002
668,3	0,001
668,7	0,002
669,2	0,002
669,6	0,002
670,1	0,002
670,5	0,002
670,9	0,002
671,4	0,002
671,8	0,002
672,3	0,002
672,7	0,002
673,1	0,001
673,6	0,001
674	0,001
674,5	0,001
674,9	0,001
675,3	0,001
675,8	0,001
676,2	0,001
676,7	0,001
677,1	0,002
677,5	0,002
678	0,002
678,4	0,002
678,9	0,002
679,3	0,002
679,7	0,002
680,2	0,002
680,6	0,001
681,1	0,002
681,5	0,002
681,9	0,002
682,4	0,002
682,8	0,002
683,3	0,002
683,7	0,002
684,1	0,002
684,6	0,002
685	0,001
685,5	0,001
685,9	0,001
686,3	0,001
686,8	0,001
687,2	0,001
687,7	0,001
688,1	0,001
688,5	0,001
689	0,001
689,4	0,001
689,9	0,002
690,3	0,002
690,7	0,002
691,2	0,002
691,6	0,002
692	0,002
692,5	0,002
692,9	0,001
693,4	0,001
693,8	0,001
694,2	0,001
694,7	0,001
695,1	0,002
695,6	0,002
696	0,002
696,4	0,002
696,9	0,002
697,3	0,002
697,8	0,002
698,2	0,002
698,6	0,001
699,1	0,001
699,5	0,001
699,9	0,001
700,4	0,001
700,8	0,001
701,3	0,001
701,7	0,001
702,1	0,001
702,6	0,001
703	0,002
703,5	0,002
703,9	0,002
704,3	0,002
704,8	0,002
705,2	0,002
705,6	0,002
706,1	0,002
706,5	0,002
707	0,003
707,4	0,003
707,8	0,002
708,3	0,002
708,7	0,002
709,2	0,002
709,6	0,002
710	0,001
710,5	0,001
710,9	0,001
711,3	0,001
711,8	0,001
712,2	0,001
712,7	0,001
713,1	0,002
713,5	0,001
714	0,002
714,4	0,001
714,8	0,001
715,3	0,001
715,7	0,001
716,2	0,001
716,6	0,002
717	0,001
717,5	0,002
717,9	0,002
718,3	0,002
718,8	0,001
719,2	0,001
719,7	0,001
720,1	0,001
720,5	0,001
721	0,001
721,4	0,001
721,8	0,001
722,3	0,001
722,7	0,001
723,2	0,002
723,6	0,002
724	0,002
724,5	0,002
724,9	0,002
725,3	0,002
725,8	0,002
726,2	0,002
726,7	0,002
727,1	0,002
727,5	0,002
728	0,002
728,4	0,001
728,8	0,002
729,3	0,002
729,7	0,001
730,1	0,001
730,6	0
731	0
731,5	0,001
731,9	0,001
732,3	0,001
732,8	0,001
733,2	0,002
733,6	0,002
734,1	0,002
734,5	0,002
734,9	0,001
735,4	0,001
735,8	0,001
736,3	0,001
736,7	0,001
737,1	0,001
737,6	0,001
738	0,001
738,4	0,001
738,9	0,001
739,3	0,001
739,7	0,001
740,2	0,001
740,6	0,001
741,1	0,001
741,5	0,001
741,9	0,001
742,4	0,001
742,8	0,001
743,2	0,001
743,7	0,002
744,1	0,002
744,5	0,002
745	0,002
745,4	0,002
745,8	0,002
746,3	0,002
746,7	0,002
747,2	0,002
747,6	0,002
748	0,002
748,5	0,002
748,9	0,001
749,3	0,002
749,8	0,002
750,2	0,002
750,6	0,002
751,1	0,002
751,5	0,002
751,9	0,002
752,4	0,002
752,8	0,001
753,3	0,001
753,7	0,001
754,1	0,001
754,6	0,001
755	0,001
755,4	0,001
755,9	0,001
756,3	0,002
756,7	0,002
757,2	0,002
757,6	0,002
758	0,002
758,5	0,002
758,9	0,002
759,3	0,002
759,8	0,002
760,2	0,001
760,6	0,001
761,1	0,001
761,5	0,001
761,9	0,001
762,4	0,001
762,8	0,001
763,3	0,001
763,7	0,001
764,1	0,001
764,6	0,001
765	0,001
765,4	0,001
765,9	0,001
766,3	0,001
766,7	0,001
767,2	0,001
767,6	0,002
768	0,002
768,5	0,002
768,9	0,002
769,3	0,002
769,8	0,002
770,2	0,002
770,6	0,002
771,1	0,001
771,5	0,001
771,9	0,001
772,4	0,001
772,8	0,001
773,2	0,001
773,7	0,001
774,1	0,001
774,5	0,001
775	0,001
775,4	0,001
775,8	0,002
776,3	0,001
776,7	0,001
777,1	0,001
777,6	0,002
778	0,002
778,4	0,002
778,9	0,001
779,3	0,001
779,7	0,001
780,2	0,001
780,6	0,001
781	0
781,5	0
781,9	0,001
782,3	0,001
782,8	0,001
783,2	0,001
783,6	0,001
784,1	0,001
784,5	0,001
784,9	0,001
785,4	0,001
785,8	0,001
786,2	0,001
786,7	0,001
787,1	0,002
787,5	0,002
788	0,002
788,4	0,001
788,8	0,001
789,3	0,001
789,7	0,001
790,1	0,001
790,6	0,001
791	0,001
791,4	0,001
791,9	0,002
792,3	0,002
792,7	0,002
793,2	0,002
793,6	0,002
794	0,002
794,5	0,002
794,9	0,001
795,3	0,001
795,8	0,001
796,2	0,001
796,6	0,001
797,1	0,001
797,5	0,001
797,9	0,001
798,4	0,001
798,8	0,001
799,2	0,001
799,7	0,001
800,1	0,001
800,5	0,001
801	0,001
801,4	0,001
801,8	0,001
802,2	0,001
802,7	0,001
803,1	0,001
803,5	0,001
804	0,001
804,4	0,001
804,8	0,001
805,3	0,001
805,7	0,001
806,1	0,002
806,6	0,002
807	0,002
807,4	0,001
807,9	0,001
808,3	0,001
808,7	0,001
809,2	0,001
809,6	0,001
810	0,001
810,4	0,001
810,9	0,001
811,3	0,001
811,7	0,002
812,2	0,002
812,6	0,001
813	0,001
813,5	0,001
813,9	0,001
814,3	0,001
814,8	0,001
815,2	0,001
815,6	0,001
816,1	0,001
816,5	0,001
816,9	0,001
817,3	0,001
817,8	0,001
818,2	0,001
818,6	0,001
819,1	0,001
819,5	0,001
819,9	0,001
820,4	0,001
820,8	0,001
821,2	0,001
821,7	0,001
822,1	0,001
822,5	0,001
822,9	0,001
823,4	0,001
823,8	0,001
824,2	0,001
824,7	0,001
825,1	0,001
825,5	0,001
826	0,001
826,4	0,001
826,8	0,001
827,3	0,001
827,7	0,001
828,1	0,001
828,5	0,001
829	0,001
829,4	0,001
829,8	0,002
830,3	0,002
830,7	0,001
831,1	0,002
831,6	0,002
832	0,001
832,4	0,002
832,8	0,001
833,3	0,002
833,7	0,002
834,1	0,001
834,6	0,001
835	0,001
835,4	0,001
835,8	0,001
836,3	0,001
836,7	0,001
837,1	0,001
837,6	0,001
838	0,001
838,4	0,001
838,9	0,001
839,3	0,001
839,7	0,002
840,1	0,002
840,6	0,002
841	0,002
841,4	0,002
841,9	0,002
842,3	0,002
842,7	0,002
843,1	0,002
843,6	0,002
844	0,002
844,4	0,002
844,9	0,001
845,3	0,002
845,7	0,001
846,2	0,001
846,6	0,001
847	0,001
847,4	0,001
847,9	0,001
848,3	0,001
848,7	0,001
849,2	0,002
849,6	0,002
850	0,002
850,4	0,002
850,9	0,002
851,3	0,002
851,7	0,002
852,2	0,001
852,6	0,001
853	0,001
853,4	0,001
853,9	0,001
854,3	0,001
854,7	0,001
855,2	0,001
855,6	0,001
856	0,001
856,4	0,001
856,9	0,001
857,3	0,001
857,7	0,001
858,2	0,002
858,6	0,002
859	0,001
859,4	0,001
859,9	0,001
860,3	0,002
860,7	0,001
861,1	0,001
861,6	0,001
862	0,002
862,4	0,002
862,9	0,002
863,3	0,002
863,7	0,002
864,1	0,002
864,6	0,001
865	0,001
865,4	0,001
865,9	0,001
866,3	0,001
866,7	0,001
867,1	0,001
867,6	0,001
868	0,002
868,4	0,002
868,8	0,001
869,3	0,001
869,7	0,001
870,1	0,001
870,6	0,001
871	0,001
871,4	0,001
871,8	0,001
872,3	0,001
872,7	0,002
873,1	0,002
873,5	0,002
874	0,002
874,4	0,002
874,8	0,001
875,3	0,002
875,7	0,002
876,1	0,001
876,5	0,001
877	0,001
877,4	0,001
877,8	0,002
878,2	0,001
878,7	0,001
879,1	0,001
879,5	0,001
879,9	0,001
880,4	0,001
880,8	0,001
881,2	0,001
881,7	0,001
882,1	0,001
882,5	0,001
882,9	0,001
883,4	0,001
883,8	0,001
884,2	0,001
884,6	0,001
885,1	0,001
885,5	0,001
885,9	0,002
886,3	0,002
886,8	0,002
887,2	0,002
887,6	0,002
888	0,002
888,5	0,002
888,9	0,001
889,3	0,001
889,8	0,001
890,2	0,001
890,6	0,001
891	0,001
891,5	0,001
891,9	0,002
892,3	0,001
892,7	0,001
893,2	0,001
893,6	0,001
894	0,001
894,4	0,001
894,9	0,001
895,3	0,001
895,7	0,001
896,1	0,001
896,6	0,001
897	0,001
897,4	0,001
897,8	0,001
898,3	0,001
898,7	0,001
899,1	0,001
899,5	0,002
900	0,002
900,4	0,002
900,8	0,002
901,2	0,002
901,7	0,002
902,1	0,002
902,5	0,002
902,9	0,002
903,4	0,001
903,8	0,001
904,2	0,001
904,6	0,001
905,1	0,001
905,5	0,002
905,9	0,001
906,3	0,001
906,8	0,001
907,2	0,001
907,6	0,001
908	0,001
908,5	0,001
908,9	0,001
909,3	0,001
909,7	0,001
910,2	0,001
910,6	0,001
911	0
911,4	0
911,9	0,001
912,3	0,001
912,7	0,001
913,1	0,001
913,6	0,001
914	0,001
914,4	0,001
914,8	0,001
915,3	0,001
915,7	0,002
916,1	0,002
916,5	0,002
916,9	0,002
917,4	0,002
917,8	0,001
918,2	0,001
918,6	0,001
919,1	0,001
919,5	0,001
919,9	0,001
920,3	0,001
920,8	0,002
921,2	0,001
921,6	0,001
922	0,001
922,5	0,001
922,9	0,001
923,3	0,001
923,7	0,001
924,2	0,002
924,6	0,001
925	0,002
925,4	0,002
925,8	0,001
926,3	0,001
926,7	0,001
927,1	0,001
927,5	0,001
928	0,001
928,4	0
928,8	0
929,2	0,001
929,7	0,001
930,1	0,001
930,5	0,001
930,9	0,001
931,3	0,001
931,8	0,001
932,2	0,001
932,6	0,001
933	0,001
933,5	0
933,9	0
934,3	0,001
934,7	0,001
935,2	0,001
935,6	0,001
936	0,002
936,4	0,002
936,8	0,002
937,3	0,002
937,7	0,002
938,1	0,002
938,5	0,002
939	0,001
939,4	0,001
939,8	0,001
940,2	0,001
940,6	0,001
941,1	0,001
941,5	0,001
941,9	0,001
942,3	0,001
942,8	0,001
943,2	0,001
943,6	0,001
944	0,001
944,4	0,002
944,9	0,002
945,3	0,002
945,7	0,002
946,1	0,002
946,6	0,002
947	0,002
947,4	0,002
947,8	0,002
948,2	0,003
948,7	0,003
949,1	0,003
949,5	0,002
949,9	0,002
950,3	0,001
950,8	0,001
951,2	0,001
951,6	0,001
952	0,001
952,5	0,002
952,9	0,002
953,3	0,002
953,7	0,002
954,1	0,001
954,6	0,001
955	0,001
955,4	0,001
955,8	0,001
956,2	0,001
956,7	0,001
957,1	0,001
957,5	0,001
957,9	0,001
958,3	0,001
958,8	0,001
959,2	0,001
959,6	0,001
960	0,001
960,5	0,001
960,9	0
961,3	0,001
961,7	0,001
962,1	0,001
962,6	0,001
963	0,001
963,4	0,001
963,8	0,002
964,2	0,002
964,7	0,001
965,1	0,002
965,5	0,001
965,9	0,002
966,3	0,002
966,8	0,002
967,2	0,002
967,6	0,002
968	0,002
968,4	0,002
968,9	0,002
969,3	0,002
969,7	0,002
970,1	0,002
970,5	0,002
971	0,002
971,4	0,001
971,8	0,001
972,2	0,001
972,6	0,001
973,1	0,001
973,5	0,002
973,9	0,001
974,3	0,001
974,7	0,001
975,2	0,001
975,6	0,001
976	0,001
976,4	0,001
976,8	0,001
977,3	0,001
977,7	0,001
978,1	0,002
978,5	0,001
978,9	0,002
979,4	0,002
979,8	0,002
980,2	0,002
980,6	0,002
981	0,002
981,5	0,003
981,9	0,002
982,3	0,002
982,7	0,002
983,1	0,002
983,6	0,002
984	0,001
984,4	0,002
984,8	0,002
985,2	0,002
985,6	0,002
986,1	0,002
986,5	0,002
986,9	0,002
987,3	0,002
987,7	0,002
988,2	0,002
988,6	0,002
989	0,002
989,4	0,002
989,8	0,002
990,3	0,002
990,7	0,002
991,1	0,002
991,5	0,002
991,9	0,002
992,3	0,002
992,8	0,001
993,2	0,001
993,6	0,001
994	0,001
994,4	0,001
994,9	0,001
995,3	0,001
995,7	0,002
996,1	0,002
996,5	0,002
996,9	0,002
997,4	0,002
997,8	0,002
998,2	0,002
998,6	0,002
999	0,003
999,5	0,003
999,9	0,003
1000,3	0,003
1000,7	0,004
1001,1	0,004
1001,5	0,004
1002	0,003
1002,4	0,004
1002,8	0,004
1003,2	0,004
1003,6	0,003
1004	0,004
1004,5	0,004
1004,9	0,004
1005,3	0,004
1005,7	0,004
1006,1	0,004
1006,6	0,004
1007	0,004
1007,4	0,004
1007,8	0,004
1008,2	0,004
1008,6	0,004
1009,1	0,003
1009,5	0,002
1009,9	0,002
1010,3	0,002
1010,7	0,002
1011,1	0,002
1011,6	0,002
1012	0,003
1012,4	0,003
1012,8	0,003
1013,2	0,004
1013,6	0,004
1014,1	0,004
1014,5	0,004
1014,9	0,003
1015,3	0,003
1015,7	0,003
1016,1	0,002
1016,6	0,002
1017	0,002
1017,4	0,002
1017,8	0,002
1018,2	0,002
1018,6	0,002
1019,1	0,003
1019,5	0,003
1019,9	0,002
1020,3	0,002
1020,7	0,002
1021,1	0,002
1021,6	0,002
1022	0,002
1022,4	0,002
1022,8	0,003
1023,2	0,003
1023,6	0,003
1024,1	0,003
1024,5	0,003
1024,9	0,003
1025,3	0,003
1025,7	0,003
1026,1	0,003
1026,6	0,003
1027	0,003
1027,4	0,003
1027,8	0,003
1028,2	0,003
1028,6	0,002
1029	0,003
1029,5	0,003
1029,9	0,003
1030,3	0,003
1030,7	0,003
1031,1	0,003
1031,5	0,003
1032	0,003
1032,4	0,003
1032,8	0,003
1033,2	0,004
1033,6	0,004
1034	0,004
1034,4	0,005
1034,9	0,005
1035,3	0,004
1035,7	0,003
1036,1	0,003
1036,5	0,003
1036,9	0,003
1037,4	0,003
1037,8	0,004
1038,2	0,004
1038,6	0,005
1039	0,005
1039,4	0,005
1039,8	0,004
1040,3	0,004
1040,7	0,004
1041,1	0,003
1041,5	0,004
1041,9	0,004
1042,3	0,005
1042,7	0,005
1043,2	0,005
1043,6	0,005
1044	0,005
1044,4	0,004
1044,8	0,003
1045,2	0,003
1045,6	0,002
1046,1	0,002
1046,5	0,003
1046,9	0,002
1047,3	0,002
1047,7	0,002
1048,1	0,003
1048,5	0,003
1049	0,003
1049,4	0,003
1049,8	0,003
1050,2	0,004
1050,6	0,004
1051	0,004
1051,4	0,005
1051,9	0,004
1052,3	0,005
1052,7	0,005
1053,1	0,005
1053,5	0,005
1053,9	0,004
1054,3	0,003
1054,8	0,003
1055,2	0,003
1055,6	0,003
1056	0,003
1056,4	0,003
1056,8	0,004
1057,2	0,004
1057,6	0,003
1058,1	0,003
1058,5	0,003
1058,9	0,004
1059,3	0,004
1059,7	0,004
1060,1	0,005
1060,5	0,006
1061	0,006
1061,4	0,006
1061,8	0,006
1062,2	0,006
1062,6	0,006
1063	0,005
1063,4	0,006
1063,8	0,006
1064,3	0,005
1064,7	0,005
1065,1	0,005
1065,5	0,005
1065,9	0,005
1066,3	0,004
1066,7	0,005
1067,1	0,005
1067,6	0,004
1068	0,004
1068,4	0,004
1068,8	0,004
1069,2	0,005
1069,6	0,003
1070	0,003
1070,4	0,005
1070,9	0,005
1071,3	0,005
1071,7	0,006
1072,1	0,007
1072,5	0,007
1072,9	0,008
1073,3	0,007
1073,7	0,006
1074,2	0,007
1074,6	0,006
1075	0,006
1075,4	0,007
1075,8	0,007
1076,2	0,007
1076,6	0,007
1077	0,005
1077,5	0,005
1077,9	0,005
1078,3	0,005
1078,7	0,004
1079,1	0,004
1079,5	0,005
1079,9	0,005
1080,3	0,006
1080,7	0,006
1081,2	0,005
1081,6	0,005
1082	0,007
1082,4	0,007
1082,8	0,007
1083,2	0,007
1083,6	0,006
1084	0,008
1084,5	0,009
1084,9	0,007
1085,3	0,007
1085,7	0,008
1086,1	0,007
1086,5	0,008
1086,9	0,01
1087,3	0,012
1087,7	0,014
1088,2	0,016
1088,6	0,016
1089	0,017
1089,4	0,016
1089,8	0,014
1090,2	0,011
1090,6	0,009
1091	0,009
1091,4	0,012
1091,9	0,015
1092,3	0,015
1092,7	0,015
1093,1	0,017
1093,5	0,018
1093,9	0,02
1094,3	0,019
1094,7	0,016
1095,1	0,02
1095,5	0,019
1096	0,02
1096,4	0,021
1096,8	0,018
1097,2	0,015
1097,6	0,016
1098	0,015
1098,4	0,016
1098,8	0,021
1099,2	0,027
1099,6	0,032
1100,1	0,033
1100,5	0,035
1100,9	0,033
1101,3	0,041
1101,7	0,041
1102,1	0,04
1102,5	0,045
1102,9	0,058
1103,3	0,068
1103,7	0,075
1104,2	0,075
1104,6	0,079
1105	0,078
1105,4	0,085
1105,8	0,081
1106,2	0,075
1106,6	0,085
1107	0,099
1107,4	0,1
1107,8	0,149
1108,3	0,43
