Data from Absorbance_225.txt Node
Date: Fri Nov 13 21:26:19 MSK 2020
User: vat
Spectrometer: MAYP114033
Trigger mode: 0
Integration Time (sec): 8,000000E-3
Scans to average: 10
Electric dark correction enabled: true
Nonlinearity correction enabled: false
Boxcar width: 3
XAxis mode: Wavelengths
Number of Pixels in Spectrum: 2068
>>>>>Begin Spectral Data<<<<<
199,4	-0,498
199,9	-0
200,4	0,491
200,8	0,307
201,3	0,164
201,8	0,191
202,2	0,163
202,7	0,16
203,2	0,132
203,6	0,124
204,1	0,141
204,6	0,133
205	0,123
205,5	0,142
206	0,151
206,4	0,165
206,9	0,159
207,4	0,155
207,8	0,166
208,3	0,169
208,8	0,175
209,2	0,175
209,7	0,184
210,2	0,185
210,6	0,175
211,1	0,171
211,5	0,179
212	0,165
212,5	0,185
212,9	0,169
213,4	0,183
213,9	0,198
214,3	0,183
214,8	0,187
215,3	0,195
215,7	0,155
216,2	0,158
216,7	0,154
217,1	0,146
217,6	0,162
218,1	0,163
218,5	0,163
219	0,207
219,5	0,225
219,9	0,244
220,4	0,234
220,9	0,221
221,3	0,202
221,8	0,185
222,3	0,151
222,7	0,134
223,2	0,114
223,6	0,134
224,1	0,142
224,6	0,128
225	0,143
225,5	0,162
226	0,162
226,4	0,16
226,9	0,148
227,4	0,161
227,8	0,187
228,3	0,187
228,8	0,179
229,2	0,184
229,7	0,192
230,2	0,183
230,6	0,187
231,1	0,186
231,5	0,194
232	0,203
232,5	0,209
232,9	0,204
233,4	0,224
233,9	0,211
234,3	0,215
234,8	0,2
235,3	0,21
235,7	0,222
236,2	0,224
236,7	0,214
237,1	0,226
237,6	0,217
238,1	0,233
238,5	0,218
239	0,208
239,4	0,202
239,9	0,204
240,4	0,203
240,8	0,214
241,3	0,23
241,8	0,22
242,2	0,216
242,7	0,233
243,2	0,246
243,6	0,243
244,1	0,251
244,6	0,238
245	0,262
245,5	0,278
245,9	0,272
246,4	0,266
246,9	0,27
247,3	0,274
247,8	0,275
248,3	0,27
248,7	0,273
249,2	0,277
249,7	0,28
250,1	0,274
250,6	0,269
251	0,272
251,5	0,269
252	0,265
252,4	0,266
252,9	0,267
253,4	0,269
253,8	0,271
254,3	0,274
254,8	0,278
255,2	0,281
255,7	0,283
256,1	0,286
256,6	0,289
257,1	0,294
257,5	0,3
258	0,304
258,5	0,311
258,9	0,317
259,4	0,325
259,9	0,332
260,3	0,339
260,8	0,346
261,2	0,355
261,7	0,363
262,2	0,372
262,6	0,381
263,1	0,39
263,6	0,399
264	0,407
264,5	0,417
264,9	0,425
265,4	0,434
265,9	0,444
266,3	0,453
266,8	0,461
267,3	0,47
267,7	0,479
268,2	0,489
268,7	0,498
269,1	0,507
269,6	0,517
270	0,525
270,5	0,535
271	0,543
271,4	0,552
271,9	0,56
272,4	0,568
272,8	0,576
273,3	0,585
273,7	0,594
274,2	0,602
274,7	0,61
275,1	0,617
275,6	0,625
276,1	0,632
276,5	0,639
277	0,645
277,4	0,65
277,9	0,656
278,4	0,661
278,8	0,666
279,3	0,669
279,8	0,674
280,2	0,676
280,7	0,679
281,1	0,682
281,6	0,684
282,1	0,685
282,5	0,685
283	0,685
283,4	0,685
283,9	0,684
284,4	0,682
284,8	0,679
285,3	0,676
285,8	0,673
286,2	0,669
286,7	0,666
287,1	0,661
287,6	0,656
288,1	0,65
288,5	0,642
289	0,636
289,5	0,627
289,9	0,618
290,4	0,609
290,8	0,599
291,3	0,59
291,8	0,579
292,2	0,569
292,7	0,557
293,1	0,546
293,6	0,534
294,1	0,523
294,5	0,51
295	0,497
295,5	0,484
295,9	0,471
296,4	0,458
296,8	0,444
297,3	0,431
297,8	0,417
298,2	0,404
298,7	0,391
299,1	0,379
299,6	0,365
300,1	0,353
300,5	0,341
301	0,329
301,5	0,316
301,9	0,305
302,4	0,293
302,8	0,282
303,3	0,271
303,8	0,26
304,2	0,25
304,7	0,24
305,1	0,231
305,6	0,222
306,1	0,213
306,5	0,205
307	0,197
307,4	0,189
307,9	0,182
308,4	0,175
308,8	0,168
309,3	0,162
309,8	0,156
310,2	0,151
310,7	0,145
311,1	0,14
311,6	0,136
312,1	0,131
312,5	0,126
313	0,122
313,4	0,118
313,9	0,114
314,4	0,111
314,8	0,108
315,3	0,105
315,7	0,103
316,2	0,101
316,7	0,099
317,1	0,097
317,6	0,095
318	0,093
318,5	0,09
319	0,088
319,4	0,086
319,9	0,085
320,3	0,084
320,8	0,082
321,3	0,081
321,7	0,08
322,2	0,079
322,6	0,079
323,1	0,077
323,6	0,077
324	0,076
324,5	0,076
324,9	0,075
325,4	0,075
325,9	0,074
326,3	0,074
326,8	0,073
327,2	0,073
327,7	0,072
328,2	0,071
328,6	0,071
329,1	0,071
329,5	0,07
330	0,069
330,5	0,069
330,9	0,068
331,4	0,068
331,8	0,068
332,3	0,067
332,8	0,067
333,2	0,067
333,7	0,067
334,1	0,067
334,6	0,066
335,1	0,066
335,5	0,066
336	0,066
336,4	0,067
336,9	0,066
337,4	0,066
337,8	0,066
338,3	0,065
338,7	0,065
339,2	0,064
339,7	0,065
340,1	0,064
340,6	0,065
341	0,065
341,5	0,064
342	0,064
342,4	0,064
342,9	0,063
343,3	0,063
343,8	0,063
344,2	0,063
344,7	0,063
345,2	0,063
345,6	0,063
346,1	0,063
346,5	0,063
347	0,062
347,5	0,062
347,9	0,062
348,4	0,062
348,8	0,062
349,3	0,062
349,8	0,063
350,2	0,062
350,7	0,062
351,1	0,062
351,6	0,062
352	0,062
352,5	0,062
353	0,061
353,4	0,061
353,9	0,061
354,3	0,061
354,8	0,061
355,3	0,06
355,7	0,06
356,2	0,06
356,6	0,06
357,1	0,059
357,5	0,059
358	0,059
358,5	0,059
358,9	0,06
359,4	0,06
359,8	0,06
360,3	0,06
360,8	0,06
361,2	0,06
361,7	0,059
362,1	0,059
362,6	0,059
363	0,059
363,5	0,059
364	0,059
364,4	0,058
364,9	0,058
365,3	0,058
365,8	0,058
366,3	0,058
366,7	0,058
367,2	0,059
367,6	0,059
368,1	0,058
368,5	0,058
369	0,058
369,5	0,058
369,9	0,057
370,4	0,057
370,8	0,057
371,3	0,057
371,7	0,056
372,2	0,057
372,7	0,057
373,1	0,056
373,6	0,056
374	0,055
374,5	0,055
374,9	0,056
375,4	0,056
375,9	0,055
376,3	0,055
376,8	0,055
377,2	0,055
377,7	0,054
378,2	0,054
378,6	0,054
379,1	0,054
379,5	0,054
380	0,054
380,4	0,054
380,9	0,055
381,4	0,055
381,8	0,054
382,3	0,054
382,7	0,055
383,2	0,055
383,6	0,054
384,1	0,054
384,6	0,054
385	0,054
385,5	0,054
385,9	0,054
386,4	0,054
386,8	0,054
387,3	0,053
387,7	0,053
388,2	0,052
388,7	0,052
389,1	0,052
389,6	0,053
390	0,053
390,5	0,052
390,9	0,053
391,4	0,053
391,9	0,053
392,3	0,052
392,8	0,052
393,2	0,052
393,7	0,052
394,1	0,052
394,6	0,052
395,1	0,052
395,5	0,052
396	0,052
396,4	0,052
396,9	0,053
397,3	0,053
397,8	0,053
398,2	0,052
398,7	0,052
399,2	0,051
399,6	0,051
400,1	0,051
400,5	0,051
401	0,051
401,4	0,051
401,9	0,051
402,4	0,052
402,8	0,052
403,3	0,051
403,7	0,051
404,2	0,051
404,6	0,051
405,1	0,05
405,5	0,05
406	0,05
406,5	0,05
406,9	0,049
407,4	0,05
407,8	0,05
408,3	0,05
408,7	0,05
409,2	0,05
409,6	0,05
410,1	0,05
410,6	0,05
411	0,05
411,5	0,05
411,9	0,05
412,4	0,05
412,8	0,05
413,3	0,049
413,7	0,049
414,2	0,048
414,7	0,048
415,1	0,048
415,6	0,048
416	0,048
416,5	0,048
416,9	0,048
417,4	0,048
417,8	0,048
418,3	0,048
418,8	0,049
419,2	0,049
419,7	0,05
420,1	0,05
420,6	0,05
421	0,049
421,5	0,049
421,9	0,049
422,4	0,049
422,8	0,048
423,3	0,048
423,8	0,048
424,2	0,048
424,7	0,048
425,1	0,048
425,6	0,047
426	0,048
426,5	0,048
426,9	0,048
427,4	0,048
427,9	0,048
428,3	0,048
428,8	0,048
429,2	0,048
429,7	0,047
430,1	0,047
430,6	0,046
431	0,046
431,5	0,046
431,9	0,046
432,4	0,046
432,8	0,046
433,3	0,046
433,8	0,046
434,2	0,046
434,7	0,045
435,1	0,046
435,6	0,046
436	0,046
436,5	0,046
436,9	0,047
437,4	0,047
437,8	0,047
438,3	0,047
438,8	0,047
439,2	0,047
439,7	0,046
440,1	0,046
440,6	0,046
441	0,046
441,5	0,046
441,9	0,046
442,4	0,046
442,8	0,046
443,3	0,046
443,7	0,046
444,2	0,046
444,7	0,046
445,1	0,046
445,6	0,046
446	0,046
446,5	0,046
446,9	0,046
447,4	0,046
447,8	0,046
448,3	0,046
448,7	0,046
449,2	0,046
449,6	0,046
450,1	0,045
450,6	0,045
451	0,045
451,5	0,045
451,9	0,045
452,4	0,045
452,8	0,045
453,3	0,045
453,7	0,045
454,2	0,045
454,6	0,045
455,1	0,045
455,5	0,045
456	0,045
456,4	0,045
456,9	0,045
457,3	0,045
457,8	0,045
458,3	0,044
458,7	0,044
459,2	0,044
459,6	0,044
460,1	0,044
460,5	0,044
461	0,044
461,4	0,045
461,9	0,045
462,3	0,045
462,8	0,045
463,2	0,045
463,7	0,045
464,1	0,044
464,6	0,044
465	0,044
465,5	0,043
466	0,043
466,4	0,043
466,9	0,042
467,3	0,043
467,8	0,042
468,2	0,042
468,7	0,042
469,1	0,042
469,6	0,042
470	0,043
470,5	0,043
470,9	0,043
471,4	0,043
471,8	0,043
472,3	0,043
472,7	0,044
473,2	0,044
473,6	0,043
474,1	0,044
474,5	0,043
475	0,043
475,4	0,043
475,9	0,043
476,4	0,042
476,8	0,042
477,3	0,042
477,7	0,042
478,2	0,042
478,6	0,042
479,1	0,043
479,5	0,042
480	0,042
480,4	0,042
480,9	0,042
481,3	0,042
481,8	0,043
482,2	0,043
482,7	0,044
483,1	0,044
483,6	0,045
484	0,046
484,5	0,045
484,9	0,043
485,4	0,042
485,8	0,042
486,3	0,041
486,7	0,04
487,2	0,039
487,6	0,038
488,1	0,039
488,5	0,041
489	0,041
489,4	0,041
489,9	0,041
490,4	0,041
490,8	0,041
491,3	0,041
491,7	0,041
492,2	0,04
492,6	0,04
493,1	0,04
493,5	0,04
494	0,04
494,4	0,04
494,9	0,04
495,3	0,04
495,8	0,041
496,2	0,04
496,7	0,041
497,1	0,041
497,6	0,041
498	0,041
498,5	0,041
498,9	0,041
499,4	0,04
499,8	0,04
500,3	0,04
500,7	0,04
501,2	0,04
501,6	0,04
502,1	0,04
502,5	0,041
503	0,04
503,4	0,04
503,9	0,041
504,3	0,04
504,8	0,04
505,2	0,039
505,7	0,038
506,1	0,039
506,6	0,039
507	0,039
507,5	0,039
507,9	0,039
508,4	0,04
508,8	0,04
509,3	0,04
509,7	0,04
510,2	0,04
510,6	0,04
511,1	0,04
511,5	0,039
512	0,039
512,4	0,039
512,9	0,039
513,3	0,039
513,8	0,039
514,2	0,039
514,7	0,039
515,1	0,039
515,6	0,038
516	0,038
516,5	0,037
516,9	0,038
517,4	0,038
517,8	0,039
518,3	0,038
518,7	0,038
519,2	0,038
519,6	0,039
520,1	0,038
520,5	0,038
521	0,038
521,4	0,038
521,9	0,039
522,3	0,039
522,8	0,039
523,2	0,039
523,7	0,039
524,1	0,039
524,6	0,039
525	0,039
525,5	0,039
525,9	0,039
526,4	0,038
526,8	0,038
527,3	0,038
527,7	0,039
528,2	0,039
528,6	0,039
529,1	0,039
529,5	0,04
530	0,04
530,4	0,039
530,9	0,039
531,3	0,038
531,8	0,038
532,2	0,038
532,6	0,038
533,1	0,038
533,5	0,038
534	0,037
534,4	0,038
534,9	0,038
535,3	0,038
535,8	0,038
536,2	0,038
536,7	0,038
537,1	0,038
537,6	0,037
538	0,037
538,5	0,037
538,9	0,037
539,4	0,037
539,8	0,037
540,3	0,037
540,7	0,037
541,2	0,037
541,6	0,037
542,1	0,037
542,5	0,036
543	0,036
543,4	0,036
543,9	0,036
544,3	0,036
544,8	0,036
545,2	0,036
545,7	0,037
546,1	0,037
546,5	0,037
547	0,037
547,4	0,036
547,9	0,037
548,3	0,036
548,8	0,036
549,2	0,036
549,7	0,036
550,1	0,037
550,6	0,037
551	0,037
551,5	0,037
551,9	0,036
552,4	0,036
552,8	0,036
553,3	0,036
553,7	0,036
554,2	0,036
554,6	0,036
555,1	0,036
555,5	0,036
555,9	0,036
556,4	0,036
556,8	0,035
557,3	0,035
557,7	0,036
558,2	0,036
558,6	0,035
559,1	0,035
559,5	0,035
560	0,035
560,4	0,035
560,9	0,035
561,3	0,035
561,8	0,036
562,2	0,035
562,7	0,035
563,1	0,035
563,6	0,035
564	0,035
564,4	0,035
564,9	0,035
565,3	0,035
565,8	0,035
566,2	0,035
566,7	0,035
567,1	0,036
567,6	0,036
568	0,036
568,5	0,035
568,9	0,035
569,4	0,035
569,8	0,035
570,3	0,035
570,7	0,034
571,1	0,034
571,6	0,034
572	0,035
572,5	0,034
572,9	0,034
573,4	0,034
573,8	0,034
574,3	0,034
574,7	0,033
575,2	0,033
575,6	0,034
576,1	0,034
576,5	0,034
576,9	0,033
577,4	0,033
577,8	0,033
578,3	0,033
578,7	0,033
579,2	0,033
579,6	0,034
580,1	0,034
580,5	0,034
581	0,033
581,4	0,032
581,9	0,032
582,3	0,032
582,7	0,031
583,2	0,031
583,6	0,031
584,1	0,032
584,5	0,032
585	0,032
585,4	0,033
585,9	0,032
586,3	0,032
586,8	0,032
587,2	0,032
587,6	0,032
588,1	0,032
588,5	0,032
589	0,032
589,4	0,031
589,9	0,032
590,3	0,032
590,8	0,033
591,2	0,033
591,7	0,033
592,1	0,033
592,5	0,033
593	0,033
593,4	0,033
593,9	0,032
594,3	0,032
594,8	0,031
595,2	0,031
595,7	0,031
596,1	0,031
596,6	0,031
597	0,031
597,4	0,032
597,9	0,032
598,3	0,032
598,8	0,032
599,2	0,032
599,7	0,031
600,1	0,031
600,6	0,031
601	0,031
601,4	0,031
601,9	0,031
602,3	0,031
602,8	0,031
603,2	0,031
603,7	0,031
604,1	0,031
604,6	0,031
605	0,03
605,4	0,031
605,9	0,031
606,3	0,031
606,8	0,031
607,2	0,031
607,7	0,031
608,1	0,031
608,6	0,031
609	0,032
609,4	0,032
609,9	0,032
610,3	0,032
610,8	0,032
611,2	0,032
611,7	0,032
612,1	0,031
612,6	0,031
613	0,031
613,4	0,031
613,9	0,031
614,3	0,031
614,8	0,03
615,2	0,031
615,7	0,031
616,1	0,03
616,6	0,031
617	0,03
617,4	0,031
617,9	0,031
618,3	0,031
618,8	0,031
619,2	0,031
619,7	0,03
620,1	0,031
620,5	0,031
621	0,03
621,4	0,03
621,9	0,03
622,3	0,03
622,8	0,03
623,2	0,029
623,6	0,029
624,1	0,029
624,5	0,029
625	0,03
625,4	0,03
625,9	0,03
626,3	0,031
626,8	0,031
627,2	0,031
627,6	0,031
628,1	0,031
628,5	0,031
629	0,031
629,4	0,031
629,9	0,031
630,3	0,03
630,7	0,03
631,2	0,03
631,6	0,03
632,1	0,029
632,5	0,029
633	0,029
633,4	0,03
633,8	0,03
634,3	0,03
634,7	0,03
635,2	0,03
635,6	0,03
636,1	0,03
636,5	0,03
636,9	0,03
637,4	0,029
637,8	0,029
638,3	0,029
638,7	0,03
639,2	0,029
639,6	0,03
640	0,03
640,5	0,03
640,9	0,03
641,4	0,03
641,8	0,03
642,2	0,03
642,7	0,03
643,1	0,03
643,6	0,03
644	0,03
644,5	0,03
644,9	0,03
645,3	0,029
645,8	0,029
646,2	0,029
646,7	0,029
647,1	0,029
647,6	0,029
648	0,029
648,4	0,03
648,9	0,03
649,3	0,03
649,8	0,03
650,2	0,03
650,6	0,03
651,1	0,03
651,5	0,03
652	0,03
652,4	0,03
652,9	0,03
653,3	0,032
653,7	0,039
654,2	0,025
654,6	0,018
655,1	0,013
655,5	0,011
655,9	0,01
656,4	0,009
656,8	0,004
657,3	0,007
657,7	0,01
658,2	0,017
658,6	0,026
659	0,028
659,5	0,029
659,9	0,029
660,4	0,029
660,8	0,029
661,2	0,029
661,7	0,029
662,1	0,029
662,6	0,029
663	0,029
663,4	0,028
663,9	0,028
664,3	0,028
664,8	0,028
665,2	0,028
665,6	0,029
666,1	0,029
666,5	0,029
667	0,029
667,4	0,029
667,9	0,029
668,3	0,029
668,7	0,029
669,2	0,029
669,6	0,029
670,1	0,029
670,5	0,029
670,9	0,028
671,4	0,028
671,8	0,028
672,3	0,028
672,7	0,028
673,1	0,028
673,6	0,028
674	0,028
674,5	0,028
674,9	0,028
675,3	0,028
675,8	0,028
676,2	0,029
676,7	0,029
677,1	0,028
677,5	0,029
678	0,029
678,4	0,029
678,9	0,029
679,3	0,029
679,7	0,029
680,2	0,029
680,6	0,029
681,1	0,029
681,5	0,029
681,9	0,028
682,4	0,028
682,8	0,028
683,3	0,028
683,7	0,028
684,1	0,027
684,6	0,027
685	0,027
685,5	0,027
685,9	0,027
686,3	0,026
686,8	0,026
687,2	0,027
687,7	0,027
688,1	0,027
688,5	0,027
689	0,027
689,4	0,027
689,9	0,028
690,3	0,027
690,7	0,027
691,2	0,027
691,6	0,027
692	0,028
692,5	0,027
692,9	0,027
693,4	0,028
693,8	0,028
694,2	0,027
694,7	0,027
695,1	0,027
695,6	0,027
696	0,027
696,4	0,027
696,9	0,026
697,3	0,026
697,8	0,026
698,2	0,026
698,6	0,026
699,1	0,026
699,5	0,026
699,9	0,026
700,4	0,026
700,8	0,026
701,3	0,026
701,7	0,027
702,1	0,027
702,6	0,027
703	0,028
703,5	0,028
703,9	0,027
704,3	0,027
704,8	0,027
705,2	0,027
705,6	0,027
706,1	0,027
706,5	0,026
707	0,027
707,4	0,027
707,8	0,026
708,3	0,026
708,7	0,026
709,2	0,026
709,6	0,027
710	0,026
710,5	0,026
710,9	0,027
711,3	0,027
711,8	0,027
712,2	0,027
712,7	0,027
713,1	0,027
713,5	0,027
714	0,027
714,4	0,027
714,8	0,027
715,3	0,027
715,7	0,027
716,2	0,027
716,6	0,026
717	0,027
717,5	0,026
717,9	0,027
718,3	0,026
718,8	0,026
719,2	0,026
719,7	0,026
720,1	0,026
720,5	0,026
721	0,026
721,4	0,026
721,8	0,025
722,3	0,026
722,7	0,025
723,2	0,026
723,6	0,026
724	0,026
724,5	0,026
724,9	0,026
725,3	0,026
725,8	0,026
726,2	0,026
726,7	0,025
727,1	0,025
727,5	0,025
728	0,025
728,4	0,026
728,8	0,026
729,3	0,026
729,7	0,026
730,1	0,026
730,6	0,025
731	0,025
731,5	0,026
731,9	0,026
732,3	0,026
732,8	0,026
733,2	0,026
733,6	0,026
734,1	0,026
734,5	0,026
734,9	0,026
735,4	0,026
735,8	0,026
736,3	0,026
736,7	0,025
737,1	0,025
737,6	0,025
738	0,025
738,4	0,025
738,9	0,025
739,3	0,025
739,7	0,025
740,2	0,025
740,6	0,025
741,1	0,025
741,5	0,024
741,9	0,024
742,4	0,025
742,8	0,025
743,2	0,025
743,7	0,025
744,1	0,025
744,5	0,025
745	0,025
745,4	0,026
745,8	0,026
746,3	0,026
746,7	0,026
747,2	0,026
747,6	0,026
748	0,026
748,5	0,026
748,9	0,025
749,3	0,025
749,8	0,025
750,2	0,025
750,6	0,025
751,1	0,024
751,5	0,024
751,9	0,025
752,4	0,025
752,8	0,025
753,3	0,024
753,7	0,024
754,1	0,024
754,6	0,024
755	0,024
755,4	0,024
755,9	0,025
756,3	0,025
756,7	0,025
757,2	0,025
757,6	0,025
758	0,025
758,5	0,025
758,9	0,025
759,3	0,026
759,8	0,026
760,2	0,025
760,6	0,025
761,1	0,025
761,5	0,026
761,9	0,025
762,4	0,025
762,8	0,026
763,3	0,026
763,7	0,026
764,1	0,026
764,6	0,025
765	0,025
765,4	0,024
765,9	0,024
766,3	0,023
766,7	0,023
767,2	0,023
767,6	0,023
768	0,023
768,5	0,023
768,9	0,024
769,3	0,024
769,8	0,024
770,2	0,024
770,6	0,024
771,1	0,025
771,5	0,025
771,9	0,025
772,4	0,026
772,8	0,026
773,2	0,026
773,7	0,026
774,1	0,026
774,5	0,026
775	0,026
775,4	0,026
775,8	0,026
776,3	0,026
776,7	0,026
777,1	0,026
777,6	0,026
778	0,026
778,4	0,026
778,9	0,026
779,3	0,026
779,7	0,026
780,2	0,026
780,6	0,026
781	0,026
781,5	0,026
781,9	0,026
782,3	0,027
782,8	0,026
783,2	0,026
783,6	0,026
784,1	0,026
784,5	0,026
784,9	0,025
785,4	0,025
785,8	0,025
786,2	0,025
786,7	0,024
787,1	0,024
787,5	0,024
788	0,024
788,4	0,024
788,8	0,024
789,3	0,024
789,7	0,024
790,1	0,024
790,6	0,024
791	0,024
791,4	0,024
791,9	0,024
792,3	0,024
792,7	0,024
793,2	0,024
793,6	0,025
794	0,024
794,5	0,024
794,9	0,024
795,3	0,024
795,8	0,024
796,2	0,024
796,6	0,024
797,1	0,025
797,5	0,025
797,9	0,025
798,4	0,025
798,8	0,025
799,2	0,025
799,7	0,025
800,1	0,025
800,5	0,025
801	0,024
801,4	0,024
801,8	0,024
802,2	0,024
802,7	0,024
803,1	0,025
803,5	0,024
804	0,024
804,4	0,024
804,8	0,024
805,3	0,024
805,7	0,024
806,1	0,023
806,6	0,023
807	0,024
807,4	0,024
807,9	0,023
808,3	0,024
808,7	0,024
809,2	0,024
809,6	0,024
810	0,024
810,4	0,024
810,9	0,024
811,3	0,024
811,7	0,024
812,2	0,024
812,6	0,024
813	0,023
813,5	0,023
813,9	0,023
814,3	0,023
814,8	0,023
815,2	0,022
815,6	0,022
816,1	0,023
816,5	0,023
816,9	0,023
817,3	0,023
817,8	0,023
818,2	0,023
818,6	0,023
819,1	0,023
819,5	0,023
819,9	0,024
820,4	0,024
820,8	0,024
821,2	0,025
821,7	0,025
822,1	0,025
822,5	0,025
822,9	0,025
823,4	0,025
823,8	0,025
824,2	0,024
824,7	0,024
825,1	0,023
825,5	0,023
826	0,023
826,4	0,023
826,8	0,023
827,3	0,023
827,7	0,023
828,1	0,024
828,5	0,024
829	0,024
829,4	0,024
829,8	0,025
830,3	0,024
830,7	0,024
831,1	0,025
831,6	0,025
832	0,024
832,4	0,024
832,8	0,024
833,3	0,024
833,7	0,023
834,1	0,023
834,6	0,023
835	0,023
835,4	0,023
835,8	0,023
836,3	0,023
836,7	0,023
837,1	0,023
837,6	0,023
838	0,023
838,4	0,024
838,9	0,024
839,3	0,024
839,7	0,025
840,1	0,024
840,6	0,024
841	0,024
841,4	0,023
841,9	0,023
842,3	0,023
842,7	0,023
843,1	0,023
843,6	0,023
844	0,023
844,4	0,023
844,9	0,023
845,3	0,023
845,7	0,023
846,2	0,023
846,6	0,023
847	0,024
847,4	0,024
847,9	0,024
848,3	0,024
848,7	0,025
849,2	0,025
849,6	0,024
850	0,025
850,4	0,024
850,9	0,025
851,3	0,025
851,7	0,025
852,2	0,025
852,6	0,025
853	0,025
853,4	0,024
853,9	0,024
854,3	0,023
854,7	0,023
855,2	0,023
855,6	0,023
856	0,023
856,4	0,023
856,9	0,023
857,3	0,023
857,7	0,023
858,2	0,023
858,6	0,023
859	0,024
859,4	0,024
859,9	0,024
860,3	0,024
860,7	0,024
861,1	0,024
861,6	0,025
862	0,025
862,4	0,025
862,9	0,025
863,3	0,024
863,7	0,024
864,1	0,024
864,6	0,024
865	0,023
865,4	0,023
865,9	0,023
866,3	0,023
866,7	0,023
867,1	0,022
867,6	0,022
868	0,022
868,4	0,022
868,8	0,022
869,3	0,023
869,7	0,023
870,1	0,023
870,6	0,023
871	0,023
871,4	0,023
871,8	0,022
872,3	0,022
872,7	0,022
873,1	0,022
873,5	0,022
874	0,022
874,4	0,022
874,8	0,022
875,3	0,022
875,7	0,023
876,1	0,022
876,5	0,022
877	0,023
877,4	0,023
877,8	0,023
878,2	0,023
878,7	0,023
879,1	0,023
879,5	0,023
879,9	0,023
880,4	0,022
880,8	0,022
881,2	0,022
881,7	0,022
882,1	0,022
882,5	0,022
882,9	0,023
883,4	0,023
883,8	0,023
884,2	0,023
884,6	0,023
885,1	0,023
885,5	0,023
885,9	0,022
886,3	0,022
886,8	0,022
887,2	0,022
887,6	0,022
888	0,022
888,5	0,022
888,9	0,022
889,3	0,022
889,8	0,022
890,2	0,022
890,6	0,022
891	0,022
891,5	0,022
891,9	0,022
892,3	0,023
892,7	0,023
893,2	0,023
893,6	0,023
894	0,024
894,4	0,024
894,9	0,023
895,3	0,023
895,7	0,022
896,1	0,022
896,6	0,022
897	0,022
897,4	0,022
897,8	0,021
898,3	0,021
898,7	0,021
899,1	0,021
899,5	0,022
900	0,022
900,4	0,022
900,8	0,021
901,2	0,021
901,7	0,021
902,1	0,021
902,5	0,021
902,9	0,021
903,4	0,02
903,8	0,02
904,2	0,021
904,6	0,021
905,1	0,021
905,5	0,021
905,9	0,022
906,3	0,022
906,8	0,023
907,2	0,022
907,6	0,022
908	0,022
908,5	0,022
908,9	0,022
909,3	0,022
909,7	0,022
910,2	0,022
910,6	0,022
911	0,022
911,4	0,022
911,9	0,022
912,3	0,022
912,7	0,022
913,1	0,022
913,6	0,022
914	0,022
914,4	0,022
914,8	0,022
915,3	0,022
915,7	0,022
916,1	0,022
916,5	0,022
916,9	0,022
917,4	0,022
917,8	0,022
918,2	0,022
918,6	0,022
919,1	0,022
919,5	0,022
919,9	0,022
920,3	0,022
920,8	0,023
921,2	0,022
921,6	0,022
922	0,022
922,5	0,022
922,9	0,022
923,3	0,022
923,7	0,022
924,2	0,022
924,6	0,022
925	0,022
925,4	0,022
925,8	0,022
926,3	0,022
926,7	0,022
927,1	0,023
927,5	0,023
928	0,022
928,4	0,022
928,8	0,022
929,2	0,022
929,7	0,021
930,1	0,021
930,5	0,021
930,9	0,021
931,3	0,021
931,8	0,021
932,2	0,021
932,6	0,021
933	0,021
933,5	0,021
933,9	0,021
934,3	0,021
934,7	0,021
935,2	0,021
935,6	0,021
936	0,021
936,4	0,021
936,8	0,021
937,3	0,021
937,7	0,021
938,1	0,021
938,5	0,02
939	0,02
939,4	0,02
939,8	0,02
940,2	0,02
940,6	0,021
941,1	0,021
941,5	0,022
941,9	0,022
942,3	0,022
942,8	0,022
943,2	0,022
943,6	0,022
944	0,022
944,4	0,022
944,9	0,022
945,3	0,022
945,7	0,022
946,1	0,022
946,6	0,022
947	0,023
947,4	0,023
947,8	0,023
948,2	0,023
948,7	0,023
949,1	0,022
949,5	0,022
949,9	0,022
950,3	0,022
950,8	0,021
951,2	0,021
951,6	0,022
952	0,023
952,5	0,023
952,9	0,023
953,3	0,024
953,7	0,024
954,1	0,024
954,6	0,024
955	0,024
955,4	0,024
955,8	0,024
956,2	0,024
956,7	0,024
957,1	0,024
957,5	0,023
957,9	0,023
958,3	0,023
958,8	0,023
959,2	0,022
959,6	0,023
960	0,023
960,5	0,023
960,9	0,023
961,3	0,023
961,7	0,023
962,1	0,023
962,6	0,023
963	0,023
963,4	0,023
963,8	0,023
964,2	0,022
964,7	0,022
965,1	0,022
965,5	0,022
965,9	0,022
966,3	0,022
966,8	0,022
967,2	0,022
967,6	0,023
968	0,023
968,4	0,024
968,9	0,023
969,3	0,024
969,7	0,024
970,1	0,024
970,5	0,024
971	0,024
971,4	0,024
971,8	0,024
972,2	0,024
972,6	0,025
973,1	0,025
973,5	0,025
973,9	0,025
974,3	0,024
974,7	0,024
975,2	0,024
975,6	0,024
976	0,024
976,4	0,024
976,8	0,024
977,3	0,024
977,7	0,024
978,1	0,023
978,5	0,023
978,9	0,023
979,4	0,022
979,8	0,022
980,2	0,023
980,6	0,023
981	0,023
981,5	0,023
981,9	0,022
982,3	0,023
982,7	0,023
983,1	0,023
983,6	0,023
984	0,023
984,4	0,023
984,8	0,023
985,2	0,023
985,6	0,022
986,1	0,022
986,5	0,022
986,9	0,023
987,3	0,023
987,7	0,023
988,2	0,024
988,6	0,024
989	0,023
989,4	0,023
989,8	0,022
990,3	0,022
990,7	0,022
991,1	0,022
991,5	0,021
991,9	0,022
992,3	0,022
992,8	0,021
993,2	0,021
993,6	0,021
994	0,021
994,4	0,021
994,9	0,021
995,3	0,021
995,7	0,022
996,1	0,022
996,5	0,022
996,9	0,022
997,4	0,022
997,8	0,022
998,2	0,021
998,6	0,021
999	0,02
999,5	0,02
999,9	0,019
1000,3	0,019
1000,7	0,019
1001,1	0,019
1001,5	0,02
1002	0,021
1002,4	0,021
1002,8	0,021
1003,2	0,022
1003,6	0,022
1004	0,022
1004,5	0,022
1004,9	0,022
1005,3	0,022
1005,7	0,022
1006,1	0,022
1006,6	0,023
1007	0,023
1007,4	0,023
1007,8	0,023
1008,2	0,022
1008,6	0,022
1009,1	0,022
1009,5	0,022
1009,9	0,022
1010,3	0,022
1010,7	0,022
1011,1	0,022
1011,6	0,022
1012	0,022
1012,4	0,022
1012,8	0,022
1013,2	0,022
1013,6	0,022
1014,1	0,022
1014,5	0,021
1014,9	0,022
1015,3	0,022
1015,7	0,022
1016,1	0,022
1016,6	0,021
1017	0,022
1017,4	0,021
1017,8	0,021
1018,2	0,021
1018,6	0,021
1019,1	0,021
1019,5	0,022
1019,9	0,022
1020,3	0,022
1020,7	0,022
1021,1	0,022
1021,6	0,022
1022	0,022
1022,4	0,022
1022,8	0,021
1023,2	0,021
1023,6	0,021
1024,1	0,021
1024,5	0,022
1024,9	0,022
1025,3	0,022
1025,7	0,022
1026,1	0,022
1026,6	0,022
1027	0,022
1027,4	0,022
1027,8	0,022
1028,2	0,022
1028,6	0,022
1029	0,022
1029,5	0,023
1029,9	0,023
1030,3	0,023
1030,7	0,022
1031,1	0,022
1031,5	0,023
1032	0,022
1032,4	0,022
1032,8	0,021
1033,2	0,021
1033,6	0,022
1034	0,022
1034,4	0,022
1034,9	0,022
1035,3	0,022
1035,7	0,023
1036,1	0,023
1036,5	0,023
1036,9	0,024
1037,4	0,024
1037,8	0,024
1038,2	0,024
1038,6	0,024
1039	0,024
1039,4	0,024
1039,8	0,024
1040,3	0,025
1040,7	0,024
1041,1	0,024
1041,5	0,025
1041,9	0,025
1042,3	0,025
1042,7	0,024
1043,2	0,025
1043,6	0,025
1044	0,025
1044,4	0,025
1044,8	0,024
1045,2	0,025
1045,6	0,026
1046,1	0,025
1046,5	0,025
1046,9	0,025
1047,3	0,025
1047,7	0,025
1048,1	0,025
1048,5	0,024
1049	0,025
1049,4	0,025
1049,8	0,025
1050,2	0,025
1050,6	0,025
1051	0,024
1051,4	0,024
1051,9	0,025
1052,3	0,025
1052,7	0,025
1053,1	0,026
1053,5	0,027
1053,9	0,027
1054,3	0,027
1054,8	0,026
1055,2	0,026
1055,6	0,026
1056	0,025
1056,4	0,026
1056,8	0,026
1057,2	0,027
1057,6	0,027
1058,1	0,027
1058,5	0,027
1058,9	0,028
1059,3	0,028
1059,7	0,028
1060,1	0,028
1060,5	0,029
1061	0,028
1061,4	0,028
1061,8	0,028
1062,2	0,027
1062,6	0,027
1063	0,026
1063,4	0,026
1063,8	0,027
1064,3	0,027
1064,7	0,026
1065,1	0,026
1065,5	0,025
1065,9	0,026
1066,3	0,026
1066,7	0,026
1067,1	0,026
1067,6	0,026
1068	0,026
1068,4	0,027
1068,8	0,026
1069,2	0,026
1069,6	0,024
1070	0,025
1070,4	0,026
1070,9	0,027
1071,3	0,027
1071,7	0,028
1072,1	0,028
1072,5	0,029
1072,9	0,027
1073,3	0,027
1073,7	0,027
1074,2	0,026
1074,6	0,026
1075	0,027
1075,4	0,027
1075,8	0,028
1076,2	0,028
1076,6	0,027
1077	0,028
1077,5	0,027
1077,9	0,027
1078,3	0,027
1078,7	0,027
1079,1	0,028
1079,5	0,029
1079,9	0,029
1080,3	0,029
1080,7	0,028
1081,2	0,028
1081,6	0,028
1082	0,027
1082,4	0,027
1082,8	0,027
1083,2	0,027
1083,6	0,028
1084	0,029
1084,5	0,028
1084,9	0,029
1085,3	0,029
1085,7	0,03
1086,1	0,03
1086,5	0,032
1086,9	0,031
1087,3	0,033
1087,7	0,033
1088,2	0,032
1088,6	0,031
1089	0,035
1089,4	0,035
1089,8	0,035
1090,2	0,033
1090,6	0,035
1091	0,039
1091,4	0,039
1091,9	0,035
1092,3	0,034
1092,7	0,035
1093,1	0,04
1093,5	0,037
1093,9	0,036
1094,3	0,036
1094,7	0,041
1095,1	0,044
1095,5	0,046
1096	0,039
1096,4	0,048
1096,8	0,047
1097,2	0,052
1097,6	0,044
1098	0,042
1098,4	0,043
1098,8	0,054
1099,2	0,053
1099,6	0,057
1100,1	0,058
1100,5	0,069
1100,9	0,072
1101,3	0,075
1101,7	0,074
1102,1	0,069
1102,5	0,069
1102,9	0,075
1103,3	0,076
1103,7	0,08
1104,2	0,079
1104,6	0,078
1105	0,097
1105,4	0,102
1105,8	0,106
1106,2	0,111
1106,6	0,113
1107	0,131
1107,4	0,164
1107,8	0,109
1108,3	-0,802
