Data from Absorbance_012.txt Node
Date: Fri Nov 13 12:18:36 MSK 2020
User: vat
Spectrometer: MAYP114033
Trigger mode: 0
Integration Time (sec): 8,000000E-3
Scans to average: 10
Electric dark correction enabled: true
Nonlinearity correction enabled: false
Boxcar width: 3
XAxis mode: Wavelengths
Number of Pixels in Spectrum: 2068
>>>>>Begin Spectral Data<<<<<
199,4	-0,958
199,9	-0,354
200,4	-0,183
200,8	-0,11
201,3	-0,084
201,8	-0,026
202,2	-0,009
202,7	-0,008
203,2	0,007
203,6	0,024
204,1	0,037
204,6	0,037
205	0,026
205,5	0,012
206	0,01
206,4	-0,002
206,9	-0,008
207,4	-0,031
207,8	-0,025
208,3	-0,024
208,8	-0,006
209,2	0,005
209,7	0,009
210,2	0,009
210,6	0,029
211,1	0,027
211,5	0,029
212	0,026
212,5	0,003
212,9	0,015
213,4	0,013
213,9	-0,001
214,3	-0,001
214,8	-0,004
215,3	-0,006
215,7	0
216,2	-0,004
216,7	0
217,1	0,002
217,6	0,002
218,1	0,013
218,5	0,025
219	0,026
219,5	0,033
219,9	0,015
220,4	0,014
220,9	0,016
221,3	0,012
221,8	-0,003
222,3	0,001
222,7	0,007
223,2	0,031
223,6	0,035
224,1	0,037
224,6	0,042
225	0,06
225,5	0,052
226	0,046
226,4	0,039
226,9	0,029
227,4	0,028
227,8	0,033
228,3	0,037
228,8	0,04
229,2	0,037
229,7	0,036
230,2	0,046
230,6	0,052
231,1	0,035
231,5	0,044
232	0,054
232,5	0,04
232,9	0,036
233,4	0,036
233,9	0,027
234,3	0,044
234,8	0,022
235,3	0,019
235,7	0,037
236,2	0,044
236,7	0,055
237,1	0,058
237,6	0,054
238,1	0,061
238,5	0,075
239	0,074
239,4	0,087
239,9	0,094
240,4	0,098
240,8	0,101
241,3	0,105
241,8	0,1
242,2	0,119
242,7	0,124
243,2	0,126
243,6	0,149
244,1	0,16
244,6	0,163
245	0,175
245,5	0,169
245,9	0,174
246,4	0,19
246,9	0,188
247,3	0,203
247,8	0,216
248,3	0,235
248,7	0,256
249,2	0,272
249,7	0,282
250,1	0,302
250,6	0,318
251	0,331
251,5	0,343
252	0,357
252,4	0,365
252,9	0,375
253,4	0,385
253,8	0,395
254,3	0,407
254,8	0,42
255,2	0,433
255,7	0,446
256,1	0,46
256,6	0,475
257,1	0,49
257,5	0,506
258	0,521
258,5	0,536
258,9	0,556
259,4	0,572
259,9	0,589
260,3	0,608
260,8	0,626
261,2	0,645
261,7	0,664
262,2	0,682
262,6	0,704
263,1	0,726
263,6	0,747
264	0,768
264,5	0,791
264,9	0,814
265,4	0,836
265,9	0,855
266,3	0,876
266,8	0,897
267,3	0,919
267,7	0,939
268,2	0,962
268,7	0,985
269,1	1,009
269,6	1,031
270	1,053
270,5	1,075
271	1,097
271,4	1,116
271,9	1,135
272,4	1,155
272,8	1,176
273,3	1,194
273,7	1,212
274,2	1,231
274,7	1,25
275,1	1,27
275,6	1,287
276,1	1,302
276,5	1,318
277	1,333
277,4	1,345
277,9	1,355
278,4	1,365
278,8	1,378
279,3	1,389
279,8	1,399
280,2	1,409
280,7	1,418
281,1	1,425
281,6	1,428
282,1	1,43
282,5	1,431
283	1,432
283,4	1,43
283,9	1,428
284,4	1,424
284,8	1,418
285,3	1,413
285,8	1,408
286,2	1,4
286,7	1,391
287,1	1,381
287,6	1,37
288,1	1,358
288,5	1,343
289	1,328
289,5	1,312
289,9	1,294
290,4	1,276
290,8	1,256
291,3	1,235
291,8	1,211
292,2	1,186
292,7	1,161
293,1	1,135
293,6	1,107
294,1	1,079
294,5	1,051
295	1,024
295,5	0,995
295,9	0,967
296,4	0,939
296,8	0,909
297,3	0,879
297,8	0,849
298,2	0,819
298,7	0,789
299,1	0,759
299,6	0,728
300,1	0,699
300,5	0,671
301	0,642
301,5	0,614
301,9	0,586
302,4	0,56
302,8	0,534
303,3	0,509
303,8	0,484
304,2	0,46
304,7	0,437
305,1	0,415
305,6	0,394
306,1	0,373
306,5	0,354
307	0,335
307,4	0,317
307,9	0,3
308,4	0,283
308,8	0,268
309,3	0,252
309,8	0,238
310,2	0,225
310,7	0,212
311,1	0,2
311,6	0,189
312,1	0,178
312,5	0,168
313	0,159
313,4	0,15
313,9	0,141
314,4	0,133
314,8	0,126
315,3	0,119
315,7	0,112
316,2	0,106
316,7	0,101
317,1	0,096
317,6	0,091
318	0,086
318,5	0,082
319	0,079
319,4	0,075
319,9	0,071
320,3	0,068
320,8	0,064
321,3	0,062
321,7	0,06
322,2	0,057
322,6	0,055
323,1	0,053
323,6	0,051
324	0,049
324,5	0,047
324,9	0,046
325,4	0,044
325,9	0,042
326,3	0,041
326,8	0,04
327,2	0,039
327,7	0,038
328,2	0,037
328,6	0,036
329,1	0,035
329,5	0,035
330	0,034
330,5	0,033
330,9	0,033
331,4	0,032
331,8	0,031
332,3	0,031
332,8	0,031
333,2	0,03
333,7	0,03
334,1	0,03
334,6	0,03
335,1	0,029
335,5	0,028
336	0,027
336,4	0,027
336,9	0,027
337,4	0,026
337,8	0,026
338,3	0,025
338,7	0,025
339,2	0,025
339,7	0,025
340,1	0,024
340,6	0,024
341	0,023
341,5	0,023
342	0,023
342,4	0,022
342,9	0,022
343,3	0,022
343,8	0,022
344,2	0,022
344,7	0,022
345,2	0,022
345,6	0,022
346,1	0,022
346,5	0,022
347	0,022
347,5	0,022
347,9	0,021
348,4	0,021
348,8	0,021
349,3	0,021
349,8	0,021
350,2	0,02
350,7	0,02
351,1	0,02
351,6	0,019
352	0,019
352,5	0,019
353	0,018
353,4	0,018
353,9	0,018
354,3	0,019
354,8	0,019
355,3	0,018
355,7	0,018
356,2	0,018
356,6	0,018
357,1	0,018
357,5	0,017
358	0,017
358,5	0,017
358,9	0,017
359,4	0,016
359,8	0,016
360,3	0,015
360,8	0,016
361,2	0,015
361,7	0,015
362,1	0,015
362,6	0,015
363	0,015
363,5	0,015
364	0,014
364,4	0,014
364,9	0,014
365,3	0,014
365,8	0,014
366,3	0,014
366,7	0,014
367,2	0,013
367,6	0,013
368,1	0,013
368,5	0,013
369	0,013
369,5	0,012
369,9	0,012
370,4	0,013
370,8	0,012
371,3	0,013
371,7	0,013
372,2	0,013
372,7	0,012
373,1	0,012
373,6	0,012
374	0,011
374,5	0,011
374,9	0,011
375,4	0,011
375,9	0,011
376,3	0,011
376,8	0,011
377,2	0,011
377,7	0,011
378,2	0,01
378,6	0,011
379,1	0,011
379,5	0,01
380	0,01
380,4	0,01
380,9	0,009
381,4	0,009
381,8	0,008
382,3	0,008
382,7	0,008
383,2	0,008
383,6	0,008
384,1	0,008
384,6	0,008
385	0,008
385,5	0,008
385,9	0,009
386,4	0,008
386,8	0,008
387,3	0,007
387,7	0,007
388,2	0,006
388,7	0,006
389,1	0,006
389,6	0,006
390	0,006
390,5	0,006
390,9	0,006
391,4	0,006
391,9	0,006
392,3	0,006
392,8	0,006
393,2	0,006
393,7	0,006
394,1	0,006
394,6	0,006
395,1	0,006
395,5	0,006
396	0,006
396,4	0,005
396,9	0,005
397,3	0,005
397,8	0,005
398,2	0,004
398,7	0,004
399,2	0,004
399,6	0,004
400,1	0,004
400,5	0,004
401	0,004
401,4	0,004
401,9	0,004
402,4	0,004
402,8	0,003
403,3	0,003
403,7	0,003
404,2	0,003
404,6	0,003
405,1	0,003
405,5	0,004
406	0,003
406,5	0,003
406,9	0,003
407,4	0,003
407,8	0,003
408,3	0,002
408,7	0,002
409,2	0,002
409,6	0,002
410,1	0,002
410,6	0,002
411	0,002
411,5	0,002
411,9	0,002
412,4	0,002
412,8	0,002
413,3	0,002
413,7	0,002
414,2	0,001
414,7	0,002
415,1	0,001
415,6	0,001
416	0,001
416,5	0,001
416,9	0,001
417,4	0,001
417,8	0,001
418,3	0,001
418,8	0,001
419,2	0
419,7	0,001
420,1	0
420,6	-0
421	-0
421,5	-0
421,9	0
422,4	0
422,8	-0
423,3	-0
423,8	-0
424,2	-0
424,7	-0,001
425,1	-0,001
425,6	-0,001
426	-0,001
426,5	-0,001
426,9	-0,001
427,4	-0
427,9	0
428,3	0
428,8	0,001
429,2	0
429,7	0
430,1	-0
430,6	-0,001
431	-0,001
431,5	-0,002
431,9	-0,002
432,4	-0,002
432,8	-0,002
433,3	-0,002
433,8	-0,002
434,2	-0,001
434,7	-0,002
435,1	-0,001
435,6	-0,002
436	-0,002
436,5	-0,002
436,9	-0,002
437,4	-0,002
437,8	-0,002
438,3	-0,002
438,8	-0,002
439,2	-0,002
439,7	-0,003
440,1	-0,003
440,6	-0,003
441	-0,003
441,5	-0,003
441,9	-0,003
442,4	-0,004
442,8	-0,003
443,3	-0,003
443,7	-0,003
444,2	-0,003
444,7	-0,003
445,1	-0,003
445,6	-0,002
446	-0,003
446,5	-0,003
446,9	-0,003
447,4	-0,002
447,8	-0,002
448,3	-0,003
448,7	-0,003
449,2	-0,003
449,6	-0,003
450,1	-0,003
450,6	-0,004
451	-0,004
451,5	-0,004
451,9	-0,004
452,4	-0,004
452,8	-0,004
453,3	-0,004
453,7	-0,004
454,2	-0,004
454,6	-0,005
455,1	-0,004
455,5	-0,004
456	-0,005
456,4	-0,005
456,9	-0,005
457,3	-0,006
457,8	-0,005
458,3	-0,005
458,7	-0,006
459,2	-0,005
459,6	-0,005
460,1	-0,005
460,5	-0,005
461	-0,005
461,4	-0,006
461,9	-0,006
462,3	-0,006
462,8	-0,005
463,2	-0,006
463,7	-0,005
464,1	-0,005
464,6	-0,005
465	-0,006
465,5	-0,006
466	-0,006
466,4	-0,006
466,9	-0,006
467,3	-0,006
467,8	-0,006
468,2	-0,006
468,7	-0,006
469,1	-0,007
469,6	-0,006
470	-0,007
470,5	-0,007
470,9	-0,006
471,4	-0,006
471,8	-0,006
472,3	-0,006
472,7	-0,005
473,2	-0,005
473,6	-0,005
474,1	-0,005
474,5	-0,006
475	-0,006
475,4	-0,006
475,9	-0,007
476,4	-0,007
476,8	-0,007
477,3	-0,007
477,7	-0,006
478,2	-0,006
478,6	-0,007
479,1	-0,006
479,5	-0,007
480	-0,007
480,4	-0,007
480,9	-0,007
481,3	-0,007
481,8	-0,007
482,2	-0,007
482,7	-0,007
483,1	-0,007
483,6	-0,008
484	-0,008
484,5	-0,008
484,9	-0,008
485,4	-0,008
485,8	-0,008
486,3	-0,008
486,7	-0,008
487,2	-0,008
487,6	-0,009
488,1	-0,008
488,5	-0,008
489	-0,008
489,4	-0,008
489,9	-0,008
490,4	-0,008
490,8	-0,008
491,3	-0,008
491,7	-0,009
492,2	-0,009
492,6	-0,009
493,1	-0,009
493,5	-0,009
494	-0,01
494,4	-0,009
494,9	-0,009
495,3	-0,009
495,8	-0,01
496,2	-0,01
496,7	-0,009
497,1	-0,009
497,6	-0,01
498	-0,009
498,5	-0,009
498,9	-0,01
499,4	-0,01
499,8	-0,01
500,3	-0,01
500,7	-0,01
501,2	-0,01
501,6	-0,01
502,1	-0,009
502,5	-0,01
503	-0,009
503,4	-0,009
503,9	-0,009
504,3	-0,01
504,8	-0,01
505,2	-0,01
505,7	-0,01
506,1	-0,01
506,6	-0,01
507	-0,01
507,5	-0,01
507,9	-0,01
508,4	-0,01
508,8	-0,01
509,3	-0,01
509,7	-0,01
510,2	-0,011
510,6	-0,01
511,1	-0,011
511,5	-0,011
512	-0,011
512,4	-0,011
512,9	-0,011
513,3	-0,011
513,8	-0,011
514,2	-0,011
514,7	-0,012
515,1	-0,011
515,6	-0,011
516	-0,011
516,5	-0,011
516,9	-0,011
517,4	-0,011
517,8	-0,01
518,3	-0,01
518,7	-0,01
519,2	-0,011
519,6	-0,01
520,1	-0,01
520,5	-0,011
521	-0,011
521,4	-0,012
521,9	-0,012
522,3	-0,012
522,8	-0,012
523,2	-0,012
523,7	-0,012
524,1	-0,012
524,6	-0,012
525	-0,011
525,5	-0,012
525,9	-0,012
526,4	-0,012
526,8	-0,012
527,3	-0,011
527,7	-0,012
528,2	-0,012
528,6	-0,012
529,1	-0,012
529,5	-0,012
530	-0,012
530,4	-0,014
530,9	-0,014
531,3	-0,014
531,8	-0,014
532,2	-0,014
532,6	-0,014
533,1	-0,014
533,5	-0,013
534	-0,013
534,4	-0,013
534,9	-0,013
535,3	-0,013
535,8	-0,012
536,2	-0,013
536,7	-0,013
537,1	-0,013
537,6	-0,013
538	-0,014
538,5	-0,014
538,9	-0,014
539,4	-0,014
539,8	-0,014
540,3	-0,014
540,7	-0,014
541,2	-0,014
541,6	-0,014
542,1	-0,014
542,5	-0,014
543	-0,014
543,4	-0,014
543,9	-0,013
544,3	-0,013
544,8	-0,012
545,2	-0,012
545,7	-0,013
546,1	-0,013
546,5	-0,013
547	-0,013
547,4	-0,013
547,9	-0,013
548,3	-0,014
548,8	-0,014
549,2	-0,015
549,7	-0,015
550,1	-0,015
550,6	-0,015
551	-0,015
551,5	-0,015
551,9	-0,015
552,4	-0,014
552,8	-0,014
553,3	-0,014
553,7	-0,014
554,2	-0,015
554,6	-0,015
555,1	-0,014
555,5	-0,015
555,9	-0,014
556,4	-0,014
556,8	-0,014
557,3	-0,014
557,7	-0,014
558,2	-0,014
558,6	-0,014
559,1	-0,015
559,5	-0,015
560	-0,015
560,4	-0,015
560,9	-0,015
561,3	-0,015
561,8	-0,015
562,2	-0,015
562,7	-0,014
563,1	-0,015
563,6	-0,015
564	-0,015
564,4	-0,016
564,9	-0,016
565,3	-0,016
565,8	-0,015
566,2	-0,015
566,7	-0,015
567,1	-0,015
567,6	-0,015
568	-0,015
568,5	-0,016
568,9	-0,016
569,4	-0,016
569,8	-0,016
570,3	-0,016
570,7	-0,016
571,1	-0,016
571,6	-0,016
572	-0,016
572,5	-0,016
572,9	-0,016
573,4	-0,016
573,8	-0,017
574,3	-0,017
574,7	-0,017
575,2	-0,017
575,6	-0,017
576,1	-0,017
576,5	-0,017
576,9	-0,017
577,4	-0,017
577,8	-0,017
578,3	-0,017
578,7	-0,017
579,2	-0,017
579,6	-0,016
580,1	-0,016
580,5	-0,016
581	-0,016
581,4	-0,016
581,9	-0,016
582,3	-0,016
582,7	-0,016
583,2	-0,016
583,6	-0,017
584,1	-0,016
584,5	-0,017
585	-0,017
585,4	-0,017
585,9	-0,017
586,3	-0,017
586,8	-0,017
587,2	-0,017
587,6	-0,017
588,1	-0,017
588,5	-0,016
589	-0,016
589,4	-0,016
589,9	-0,016
590,3	-0,016
590,8	-0,016
591,2	-0,017
591,7	-0,017
592,1	-0,017
592,5	-0,017
593	-0,017
593,4	-0,017
593,9	-0,017
594,3	-0,017
594,8	-0,017
595,2	-0,017
595,7	-0,017
596,1	-0,017
596,6	-0,017
597	-0,017
597,4	-0,018
597,9	-0,018
598,3	-0,017
598,8	-0,017
599,2	-0,017
599,7	-0,017
600,1	-0,017
600,6	-0,017
601	-0,017
601,4	-0,017
601,9	-0,017
602,3	-0,017
602,8	-0,018
603,2	-0,018
603,7	-0,017
604,1	-0,018
604,6	-0,018
605	-0,018
605,4	-0,018
605,9	-0,018
606,3	-0,018
606,8	-0,018
607,2	-0,018
607,7	-0,018
608,1	-0,018
608,6	-0,018
609	-0,018
609,4	-0,018
609,9	-0,018
610,3	-0,018
610,8	-0,018
611,2	-0,018
611,7	-0,018
612,1	-0,018
612,6	-0,018
613	-0,018
613,4	-0,019
613,9	-0,019
614,3	-0,018
614,8	-0,019
615,2	-0,019
615,7	-0,018
616,1	-0,018
616,6	-0,018
617	-0,018
617,4	-0,018
617,9	-0,018
618,3	-0,018
618,8	-0,018
619,2	-0,018
619,7	-0,018
620,1	-0,018
620,5	-0,018
621	-0,019
621,4	-0,019
621,9	-0,019
622,3	-0,019
622,8	-0,019
623,2	-0,019
623,6	-0,019
624,1	-0,019
624,5	-0,019
625	-0,019
625,4	-0,019
625,9	-0,019
626,3	-0,018
626,8	-0,018
627,2	-0,017
627,6	-0,017
628,1	-0,017
628,5	-0,017
629	-0,017
629,4	-0,017
629,9	-0,017
630,3	-0,018
630,7	-0,018
631,2	-0,018
631,6	-0,018
632,1	-0,018
632,5	-0,018
633	-0,018
633,4	-0,018
633,8	-0,018
634,3	-0,018
634,7	-0,018
635,2	-0,018
635,6	-0,018
636,1	-0,018
636,5	-0,018
636,9	-0,018
637,4	-0,018
637,8	-0,018
638,3	-0,017
638,7	-0,018
639,2	-0,018
639,6	-0,018
640	-0,018
640,5	-0,018
640,9	-0,019
641,4	-0,019
641,8	-0,019
642,2	-0,02
642,7	-0,02
643,1	-0,02
643,6	-0,02
644	-0,02
644,5	-0,02
644,9	-0,019
645,3	-0,019
645,8	-0,018
646,2	-0,018
646,7	-0,018
647,1	-0,018
647,6	-0,019
648	-0,019
648,4	-0,019
648,9	-0,019
649,3	-0,02
649,8	-0,019
650,2	-0,02
650,6	-0,02
651,1	-0,02
651,5	-0,02
652	-0,02
652,4	-0,019
652,9	-0,019
653,3	-0,019
653,7	-0,019
654,2	-0,012
654,6	-0,009
655,1	-0,006
655,5	-0,007
655,9	-0,007
656,4	-0,007
656,8	-0,005
657,3	-0,007
657,7	-0,011
658,2	-0,016
658,6	-0,017
659	-0,018
659,5	-0,018
659,9	-0,018
660,4	-0,019
660,8	-0,019
661,2	-0,019
661,7	-0,019
662,1	-0,019
662,6	-0,019
663	-0,019
663,4	-0,019
663,9	-0,019
664,3	-0,019
664,8	-0,019
665,2	-0,019
665,6	-0,019
666,1	-0,019
666,5	-0,019
667	-0,019
667,4	-0,019
667,9	-0,019
668,3	-0,019
668,7	-0,019
669,2	-0,019
669,6	-0,019
670,1	-0,019
670,5	-0,019
670,9	-0,019
671,4	-0,019
671,8	-0,02
672,3	-0,02
672,7	-0,02
673,1	-0,02
673,6	-0,02
674	-0,02
674,5	-0,019
674,9	-0,019
675,3	-0,019
675,8	-0,019
676,2	-0,019
676,7	-0,019
677,1	-0,019
677,5	-0,02
678	-0,02
678,4	-0,02
678,9	-0,02
679,3	-0,021
679,7	-0,021
680,2	-0,02
680,6	-0,02
681,1	-0,02
681,5	-0,02
681,9	-0,02
682,4	-0,02
682,8	-0,02
683,3	-0,02
683,7	-0,02
684,1	-0,02
684,6	-0,02
685	-0,02
685,5	-0,02
685,9	-0,02
686,3	-0,02
686,8	-0,02
687,2	-0,02
687,7	-0,02
688,1	-0,02
688,5	-0,02
689	-0,02
689,4	-0,02
689,9	-0,02
690,3	-0,02
690,7	-0,02
691,2	-0,02
691,6	-0,02
692	-0,02
692,5	-0,02
692,9	-0,02
693,4	-0,021
693,8	-0,02
694,2	-0,02
694,7	-0,02
695,1	-0,02
695,6	-0,02
696	-0,02
696,4	-0,019
696,9	-0,019
697,3	-0,02
697,8	-0,019
698,2	-0,02
698,6	-0,02
699,1	-0,02
699,5	-0,02
699,9	-0,02
700,4	-0,019
700,8	-0,02
701,3	-0,019
701,7	-0,019
702,1	-0,019
702,6	-0,02
703	-0,02
703,5	-0,02
703,9	-0,02
704,3	-0,02
704,8	-0,02
705,2	-0,02
705,6	-0,02
706,1	-0,02
706,5	-0,02
707	-0,02
707,4	-0,02
707,8	-0,02
708,3	-0,021
708,7	-0,021
709,2	-0,021
709,6	-0,021
710	-0,021
710,5	-0,021
710,9	-0,021
711,3	-0,021
711,8	-0,02
712,2	-0,02
712,7	-0,021
713,1	-0,021
713,5	-0,021
714	-0,021
714,4	-0,021
714,8	-0,021
715,3	-0,021
715,7	-0,02
716,2	-0,02
716,6	-0,021
717	-0,02
717,5	-0,02
717,9	-0,021
718,3	-0,021
718,8	-0,02
719,2	-0,021
719,7	-0,02
720,1	-0,02
720,5	-0,02
721	-0,02
721,4	-0,02
721,8	-0,021
722,3	-0,02
722,7	-0,021
723,2	-0,02
723,6	-0,021
724	-0,02
724,5	-0,02
724,9	-0,02
725,3	-0,02
725,8	-0,02
726,2	-0,02
726,7	-0,02
727,1	-0,02
727,5	-0,02
728	-0,02
728,4	-0,02
728,8	-0,021
729,3	-0,021
729,7	-0,021
730,1	-0,021
730,6	-0,021
731	-0,021
731,5	-0,021
731,9	-0,02
732,3	-0,02
732,8	-0,02
733,2	-0,02
733,6	-0,02
734,1	-0,02
734,5	-0,02
734,9	-0,02
735,4	-0,02
735,8	-0,02
736,3	-0,02
736,7	-0,019
737,1	-0,019
737,6	-0,019
738	-0,019
738,4	-0,019
738,9	-0,019
739,3	-0,019
739,7	-0,02
740,2	-0,02
740,6	-0,02
741,1	-0,02
741,5	-0,02
741,9	-0,02
742,4	-0,02
742,8	-0,02
743,2	-0,02
743,7	-0,02
744,1	-0,02
744,5	-0,02
745	-0,021
745,4	-0,021
745,8	-0,02
746,3	-0,02
746,7	-0,02
747,2	-0,02
747,6	-0,02
748	-0,02
748,5	-0,02
748,9	-0,021
749,3	-0,021
749,8	-0,021
750,2	-0,021
750,6	-0,021
751,1	-0,021
751,5	-0,021
751,9	-0,021
752,4	-0,021
752,8	-0,021
753,3	-0,021
753,7	-0,021
754,1	-0,021
754,6	-0,021
755	-0,021
755,4	-0,021
755,9	-0,021
756,3	-0,021
756,7	-0,021
757,2	-0,021
757,6	-0,021
758	-0,021
758,5	-0,021
758,9	-0,021
759,3	-0,021
759,8	-0,021
760,2	-0,021
760,6	-0,021
761,1	-0,021
761,5	-0,021
761,9	-0,021
762,4	-0,021
762,8	-0,021
763,3	-0,021
763,7	-0,021
764,1	-0,021
764,6	-0,021
765	-0,021
765,4	-0,021
765,9	-0,02
766,3	-0,02
766,7	-0,02
767,2	-0,02
767,6	-0,02
768	-0,02
768,5	-0,02
768,9	-0,021
769,3	-0,02
769,8	-0,02
770,2	-0,02
770,6	-0,02
771,1	-0,02
771,5	-0,02
771,9	-0,02
772,4	-0,02
772,8	-0,02
773,2	-0,02
773,7	-0,02
774,1	-0,02
774,5	-0,021
775	-0,021
775,4	-0,021
775,8	-0,021
776,3	-0,021
776,7	-0,021
777,1	-0,021
777,6	-0,021
778	-0,021
778,4	-0,021
778,9	-0,021
779,3	-0,021
779,7	-0,021
780,2	-0,021
780,6	-0,021
781	-0,021
781,5	-0,021
781,9	-0,021
782,3	-0,021
782,8	-0,021
783,2	-0,021
783,6	-0,021
784,1	-0,022
784,5	-0,022
784,9	-0,021
785,4	-0,021
785,8	-0,021
786,2	-0,02
786,7	-0,021
787,1	-0,021
787,5	-0,02
788	-0,021
788,4	-0,021
788,8	-0,021
789,3	-0,021
789,7	-0,021
790,1	-0,02
790,6	-0,021
791	-0,02
791,4	-0,021
791,9	-0,02
792,3	-0,02
792,7	-0,02
793,2	-0,02
793,6	-0,02
794	-0,02
794,5	-0,02
794,9	-0,02
795,3	-0,02
795,8	-0,02
796,2	-0,02
796,6	-0,02
797,1	-0,021
797,5	-0,021
797,9	-0,021
798,4	-0,02
798,8	-0,02
799,2	-0,02
799,7	-0,02
800,1	-0,02
800,5	-0,02
801	-0,02
801,4	-0,02
801,8	-0,02
802,2	-0,02
802,7	-0,02
803,1	-0,02
803,5	-0,02
804	-0,02
804,4	-0,02
804,8	-0,02
805,3	-0,02
805,7	-0,02
806,1	-0,02
806,6	-0,02
807	-0,02
807,4	-0,02
807,9	-0,02
808,3	-0,021
808,7	-0,021
809,2	-0,021
809,6	-0,022
810	-0,022
810,4	-0,021
810,9	-0,021
811,3	-0,021
811,7	-0,021
812,2	-0,021
812,6	-0,02
813	-0,02
813,5	-0,02
813,9	-0,02
814,3	-0,02
814,8	-0,02
815,2	-0,02
815,6	-0,02
816,1	-0,021
816,5	-0,021
816,9	-0,021
817,3	-0,021
817,8	-0,021
818,2	-0,022
818,6	-0,022
819,1	-0,022
819,5	-0,021
819,9	-0,021
820,4	-0,021
820,8	-0,021
821,2	-0,021
821,7	-0,021
822,1	-0,021
822,5	-0,021
822,9	-0,021
823,4	-0,021
823,8	-0,021
824,2	-0,021
824,7	-0,021
825,1	-0,021
825,5	-0,021
826	-0,021
826,4	-0,021
826,8	-0,021
827,3	-0,021
827,7	-0,021
828,1	-0,021
828,5	-0,021
829	-0,021
829,4	-0,021
829,8	-0,021
830,3	-0,021
830,7	-0,021
831,1	-0,021
831,6	-0,021
832	-0,021
832,4	-0,02
832,8	-0,02
833,3	-0,02
833,7	-0,021
834,1	-0,021
834,6	-0,021
835	-0,02
835,4	-0,021
835,8	-0,02
836,3	-0,02
836,7	-0,02
837,1	-0,02
837,6	-0,02
838	-0,02
838,4	-0,02
838,9	-0,02
839,3	-0,02
839,7	-0,02
840,1	-0,02
840,6	-0,021
841	-0,021
841,4	-0,021
841,9	-0,022
842,3	-0,022
842,7	-0,021
843,1	-0,021
843,6	-0,021
844	-0,021
844,4	-0,021
844,9	-0,02
845,3	-0,02
845,7	-0,02
846,2	-0,02
846,6	-0,02
847	-0,02
847,4	-0,02
847,9	-0,02
848,3	-0,02
848,7	-0,021
849,2	-0,021
849,6	-0,021
850	-0,021
850,4	-0,022
850,9	-0,022
851,3	-0,021
851,7	-0,021
852,2	-0,021
852,6	-0,021
853	-0,021
853,4	-0,021
853,9	-0,021
854,3	-0,02
854,7	-0,02
855,2	-0,021
855,6	-0,021
856	-0,021
856,4	-0,021
856,9	-0,02
857,3	-0,021
857,7	-0,021
858,2	-0,021
858,6	-0,021
859	-0,021
859,4	-0,021
859,9	-0,021
860,3	-0,021
860,7	-0,021
861,1	-0,021
861,6	-0,021
862	-0,021
862,4	-0,021
862,9	-0,021
863,3	-0,021
863,7	-0,021
864,1	-0,021
864,6	-0,021
865	-0,021
865,4	-0,021
865,9	-0,021
866,3	-0,021
866,7	-0,021
867,1	-0,021
867,6	-0,02
868	-0,02
868,4	-0,02
868,8	-0,02
869,3	-0,02
869,7	-0,02
870,1	-0,021
870,6	-0,02
871	-0,02
871,4	-0,02
871,8	-0,02
872,3	-0,02
872,7	-0,021
873,1	-0,021
873,5	-0,021
874	-0,021
874,4	-0,021
874,8	-0,021
875,3	-0,021
875,7	-0,021
876,1	-0,022
876,5	-0,021
877	-0,021
877,4	-0,021
877,8	-0,021
878,2	-0,021
878,7	-0,02
879,1	-0,02
879,5	-0,02
879,9	-0,02
880,4	-0,021
880,8	-0,021
881,2	-0,021
881,7	-0,021
882,1	-0,021
882,5	-0,021
882,9	-0,021
883,4	-0,021
883,8	-0,021
884,2	-0,021
884,6	-0,021
885,1	-0,021
885,5	-0,021
885,9	-0,021
886,3	-0,021
886,8	-0,021
887,2	-0,021
887,6	-0,021
888	-0,021
888,5	-0,021
888,9	-0,021
889,3	-0,021
889,8	-0,021
890,2	-0,02
890,6	-0,021
891	-0,021
891,5	-0,021
891,9	-0,021
892,3	-0,022
892,7	-0,022
893,2	-0,022
893,6	-0,021
894	-0,021
894,4	-0,021
894,9	-0,021
895,3	-0,021
895,7	-0,021
896,1	-0,021
896,6	-0,021
897	-0,021
897,4	-0,021
897,8	-0,021
898,3	-0,021
898,7	-0,021
899,1	-0,02
899,5	-0,021
900	-0,021
900,4	-0,021
900,8	-0,021
901,2	-0,021
901,7	-0,021
902,1	-0,021
902,5	-0,022
902,9	-0,022
903,4	-0,021
903,8	-0,021
904,2	-0,021
904,6	-0,021
905,1	-0,02
905,5	-0,021
905,9	-0,021
906,3	-0,022
906,8	-0,022
907,2	-0,022
907,6	-0,022
908	-0,022
908,5	-0,022
908,9	-0,022
909,3	-0,021
909,7	-0,021
910,2	-0,021
910,6	-0,021
911	-0,021
911,4	-0,021
911,9	-0,021
912,3	-0,021
912,7	-0,021
913,1	-0,021
913,6	-0,021
914	-0,021
914,4	-0,021
914,8	-0,022
915,3	-0,022
915,7	-0,022
916,1	-0,022
916,5	-0,022
916,9	-0,022
917,4	-0,022
917,8	-0,022
918,2	-0,022
918,6	-0,022
919,1	-0,021
919,5	-0,021
919,9	-0,021
920,3	-0,021
920,8	-0,021
921,2	-0,022
921,6	-0,022
922	-0,022
922,5	-0,022
922,9	-0,022
923,3	-0,022
923,7	-0,022
924,2	-0,021
924,6	-0,021
925	-0,021
925,4	-0,022
925,8	-0,022
926,3	-0,021
926,7	-0,021
927,1	-0,021
927,5	-0,021
928	-0,021
928,4	-0,02
928,8	-0,02
929,2	-0,02
929,7	-0,02
930,1	-0,02
930,5	-0,02
930,9	-0,02
931,3	-0,021
931,8	-0,021
932,2	-0,021
932,6	-0,021
933	-0,021
933,5	-0,021
933,9	-0,021
934,3	-0,021
934,7	-0,02
935,2	-0,02
935,6	-0,02
936	-0,02
936,4	-0,02
936,8	-0,02
937,3	-0,021
937,7	-0,021
938,1	-0,021
938,5	-0,021
939	-0,022
939,4	-0,022
939,8	-0,021
940,2	-0,021
940,6	-0,021
941,1	-0,022
941,5	-0,022
941,9	-0,022
942,3	-0,022
942,8	-0,022
943,2	-0,022
943,6	-0,022
944	-0,022
944,4	-0,022
944,9	-0,021
945,3	-0,022
945,7	-0,021
946,1	-0,021
946,6	-0,022
947	-0,022
947,4	-0,022
947,8	-0,023
948,2	-0,023
948,7	-0,023
949,1	-0,024
949,5	-0,023
949,9	-0,023
950,3	-0,023
950,8	-0,022
951,2	-0,022
951,6	-0,022
952	-0,021
952,5	-0,021
952,9	-0,021
953,3	-0,021
953,7	-0,021
954,1	-0,021
954,6	-0,021
955	-0,021
955,4	-0,021
955,8	-0,021
956,2	-0,021
956,7	-0,021
957,1	-0,021
957,5	-0,021
957,9	-0,021
958,3	-0,021
958,8	-0,021
959,2	-0,02
959,6	-0,02
960	-0,02
960,5	-0,02
960,9	-0,02
961,3	-0,02
961,7	-0,02
962,1	-0,02
962,6	-0,02
963	-0,02
963,4	-0,02
963,8	-0,02
964,2	-0,02
964,7	-0,02
965,1	-0,019
965,5	-0,019
965,9	-0,019
966,3	-0,019
966,8	-0,02
967,2	-0,02
967,6	-0,021
968	-0,022
968,4	-0,021
968,9	-0,021
969,3	-0,022
969,7	-0,022
970,1	-0,021
970,5	-0,02
971	-0,02
971,4	-0,02
971,8	-0,021
972,2	-0,021
972,6	-0,02
973,1	-0,021
973,5	-0,021
973,9	-0,021
974,3	-0,021
974,7	-0,021
975,2	-0,021
975,6	-0,021
976	-0,021
976,4	-0,022
976,8	-0,022
977,3	-0,022
977,7	-0,022
978,1	-0,022
978,5	-0,022
978,9	-0,022
979,4	-0,023
979,8	-0,022
980,2	-0,022
980,6	-0,022
981	-0,022
981,5	-0,022
981,9	-0,021
982,3	-0,021
982,7	-0,02
983,1	-0,021
983,6	-0,021
984	-0,02
984,4	-0,021
984,8	-0,021
985,2	-0,022
985,6	-0,022
986,1	-0,022
986,5	-0,022
986,9	-0,022
987,3	-0,022
987,7	-0,022
988,2	-0,022
988,6	-0,021
989	-0,021
989,4	-0,021
989,8	-0,022
990,3	-0,022
990,7	-0,022
991,1	-0,022
991,5	-0,023
991,9	-0,023
992,3	-0,023
992,8	-0,023
993,2	-0,022
993,6	-0,022
994	-0,022
994,4	-0,021
994,9	-0,021
995,3	-0,021
995,7	-0,022
996,1	-0,022
996,5	-0,022
996,9	-0,022
997,4	-0,022
997,8	-0,022
998,2	-0,022
998,6	-0,022
999	-0,022
999,5	-0,022
999,9	-0,022
1000,3	-0,022
1000,7	-0,022
1001,1	-0,022
1001,5	-0,022
1002	-0,022
1002,4	-0,022
1002,8	-0,023
1003,2	-0,023
1003,6	-0,023
1004	-0,023
1004,5	-0,023
1004,9	-0,023
1005,3	-0,023
1005,7	-0,022
1006,1	-0,022
1006,6	-0,022
1007	-0,022
1007,4	-0,022
1007,8	-0,022
1008,2	-0,022
1008,6	-0,022
1009,1	-0,021
1009,5	-0,021
1009,9	-0,021
1010,3	-0,021
1010,7	-0,021
1011,1	-0,02
1011,6	-0,021
1012	-0,022
1012,4	-0,022
1012,8	-0,022
1013,2	-0,022
1013,6	-0,022
1014,1	-0,022
1014,5	-0,023
1014,9	-0,023
1015,3	-0,023
1015,7	-0,023
1016,1	-0,023
1016,6	-0,023
1017	-0,023
1017,4	-0,022
1017,8	-0,021
1018,2	-0,021
1018,6	-0,022
1019,1	-0,021
1019,5	-0,021
1019,9	-0,021
1020,3	-0,021
1020,7	-0,021
1021,1	-0,021
1021,6	-0,02
1022	-0,02
1022,4	-0,02
1022,8	-0,02
1023,2	-0,02
1023,6	-0,021
1024,1	-0,021
1024,5	-0,021
1024,9	-0,021
1025,3	-0,021
1025,7	-0,021
1026,1	-0,022
1026,6	-0,022
1027	-0,022
1027,4	-0,023
1027,8	-0,022
1028,2	-0,023
1028,6	-0,022
1029	-0,022
1029,5	-0,021
1029,9	-0,022
1030,3	-0,021
1030,7	-0,021
1031,1	-0,021
1031,5	-0,021
1032	-0,021
1032,4	-0,021
1032,8	-0,021
1033,2	-0,022
1033,6	-0,023
1034	-0,024
1034,4	-0,024
1034,9	-0,023
1035,3	-0,024
1035,7	-0,024
1036,1	-0,023
1036,5	-0,024
1036,9	-0,023
1037,4	-0,023
1037,8	-0,023
1038,2	-0,024
1038,6	-0,024
1039	-0,024
1039,4	-0,023
1039,8	-0,023
1040,3	-0,023
1040,7	-0,024
1041,1	-0,023
1041,5	-0,022
1041,9	-0,022
1042,3	-0,023
1042,7	-0,023
1043,2	-0,023
1043,6	-0,022
1044	-0,022
1044,4	-0,023
1044,8	-0,023
1045,2	-0,023
1045,6	-0,022
1046,1	-0,022
1046,5	-0,022
1046,9	-0,022
1047,3	-0,023
1047,7	-0,022
1048,1	-0,023
1048,5	-0,023
1049	-0,023
1049,4	-0,023
1049,8	-0,022
1050,2	-0,022
1050,6	-0,021
1051	-0,021
1051,4	-0,021
1051,9	-0,021
1052,3	-0,021
1052,7	-0,021
1053,1	-0,021
1053,5	-0,021
1053,9	-0,021
1054,3	-0,021
1054,8	-0,022
1055,2	-0,021
1055,6	-0,022
1056	-0,022
1056,4	-0,022
1056,8	-0,022
1057,2	-0,023
1057,6	-0,022
1058,1	-0,022
1058,5	-0,022
1058,9	-0,021
1059,3	-0,022
1059,7	-0,022
1060,1	-0,022
1060,5	-0,023
1061	-0,022
1061,4	-0,022
1061,8	-0,023
1062,2	-0,023
1062,6	-0,023
1063	-0,022
1063,4	-0,022
1063,8	-0,022
1064,3	-0,023
1064,7	-0,022
1065,1	-0,022
1065,5	-0,022
1065,9	-0,022
1066,3	-0,022
1066,7	-0,023
1067,1	-0,022
1067,6	-0,022
1068	-0,021
1068,4	-0,021
1068,8	-0,021
1069,2	-0,021
1069,6	-0,02
1070	-0,021
1070,4	-0,023
1070,9	-0,024
1071,3	-0,023
1071,7	-0,024
1072,1	-0,025
1072,5	-0,025
1072,9	-0,024
1073,3	-0,024
1073,7	-0,023
1074,2	-0,024
1074,6	-0,023
1075	-0,022
1075,4	-0,021
1075,8	-0,022
1076,2	-0,023
1076,6	-0,023
1077	-0,021
1077,5	-0,022
1077,9	-0,023
1078,3	-0,024
1078,7	-0,024
1079,1	-0,023
1079,5	-0,023
1079,9	-0,024
1080,3	-0,024
1080,7	-0,023
1081,2	-0,022
1081,6	-0,023
1082	-0,025
1082,4	-0,026
1082,8	-0,025
1083,2	-0,025
1083,6	-0,027
1084	-0,028
1084,5	-0,028
1084,9	-0,027
1085,3	-0,026
1085,7	-0,027
1086,1	-0,026
1086,5	-0,025
1086,9	-0,025
1087,3	-0,025
1087,7	-0,024
1088,2	-0,026
1088,6	-0,025
1089	-0,025
1089,4	-0,026
1089,8	-0,027
1090,2	-0,028
1090,6	-0,027
1091	-0,027
1091,4	-0,028
1091,9	-0,028
1092,3	-0,026
1092,7	-0,025
1093,1	-0,025
1093,5	-0,028
1093,9	-0,024
1094,3	-0,028
1094,7	-0,027
1095,1	-0,031
1095,5	-0,032
1096	-0,03
1096,4	-0,03
1096,8	-0,033
1097,2	-0,03
1097,6	-0,033
1098	-0,031
1098,4	-0,031
1098,8	-0,034
1099,2	-0,035
1099,6	-0,037
1100,1	-0,038
1100,5	-0,032
1100,9	-0,028
1101,3	-0,026
1101,7	-0,028
1102,1	-0,034
1102,5	-0,034
1102,9	-0,039
1103,3	-0,041
1103,7	-0,042
1104,2	-0,05
1104,6	-0,039
1105	-0,038
1105,4	-0,038
1105,8	-0,032
1106,2	-0,041
1106,6	-0,05
1107	-0,031
1107,4	-0,061
1107,8	-0,064
1108,3	0,119
