Data from Absorbance_024.txt Node
Date: Fri Nov 13 12:57:50 MSK 2020
User: vat
Spectrometer: MAYP114033
Trigger mode: 0
Integration Time (sec): 8,000000E-3
Scans to average: 10
Electric dark correction enabled: true
Nonlinearity correction enabled: false
Boxcar width: 3
XAxis mode: Wavelengths
Number of Pixels in Spectrum: 2068
>>>>>Begin Spectral Data<<<<<
199,4	-0
199,9	0,134
200,4	0,045
200,8	0,046
201,3	0,032
201,8	0,046
202,2	0,039
202,7	0,03
203,2	0,041
203,6	0,058
204,1	0,065
204,6	0,059
205	0,05
205,5	0,046
206	0,049
206,4	0,022
206,9	0,01
207,4	0,002
207,8	0,017
208,3	0,02
208,8	0,044
209,2	0,035
209,7	0,053
210,2	0,063
210,6	0,067
211,1	0,064
211,5	0,057
212	0,052
212,5	0,063
212,9	0,059
213,4	0,059
213,9	0,048
214,3	0,052
214,8	0,053
215,3	0,051
215,7	0,045
216,2	0,036
216,7	0,021
217,1	0,02
217,6	0,018
218,1	0,046
218,5	0,047
219	0,053
219,5	0,074
219,9	0,063
220,4	0,06
220,9	0,052
221,3	0,043
221,8	0,031
222,3	0,035
222,7	0,022
223,2	0,044
223,6	0,067
224,1	0,075
224,6	0,061
225	0,066
225,5	0,062
226	0,076
226,4	0,073
226,9	0,053
227,4	0,05
227,8	0,05
228,3	0,047
228,8	0,044
229,2	0,046
229,7	0,051
230,2	0,063
230,6	0,059
231,1	0,063
231,5	0,081
232	0,078
232,5	0,064
232,9	0,064
233,4	0,057
233,9	0,065
234,3	0,067
234,8	0,055
235,3	0,063
235,7	0,064
236,2	0,064
236,7	0,074
237,1	0,082
237,6	0,078
238,1	0,081
238,5	0,095
239	0,101
239,4	0,109
239,9	0,121
240,4	0,115
240,8	0,13
241,3	0,146
241,8	0,133
242,2	0,14
242,7	0,155
243,2	0,154
243,6	0,177
244,1	0,186
244,6	0,189
245	0,209
245,5	0,219
245,9	0,216
246,4	0,23
246,9	0,237
247,3	0,248
247,8	0,266
248,3	0,285
248,7	0,306
249,2	0,32
249,7	0,334
250,1	0,358
250,6	0,372
251	0,382
251,5	0,393
252	0,404
252,4	0,421
252,9	0,435
253,4	0,446
253,8	0,461
254,3	0,473
254,8	0,489
255,2	0,505
255,7	0,519
256,1	0,536
256,6	0,551
257,1	0,568
257,5	0,587
258	0,603
258,5	0,621
258,9	0,638
259,4	0,656
259,9	0,675
260,3	0,692
260,8	0,71
261,2	0,732
261,7	0,752
262,2	0,774
262,6	0,796
263,1	0,819
263,6	0,841
264	0,866
264,5	0,887
264,9	0,909
265,4	0,934
265,9	0,953
266,3	0,976
266,8	0,999
267,3	1,022
267,7	1,043
268,2	1,067
268,7	1,087
269,1	1,11
269,6	1,132
270	1,153
270,5	1,174
271	1,197
271,4	1,22
271,9	1,243
272,4	1,267
272,8	1,287
273,3	1,309
273,7	1,328
274,2	1,345
274,7	1,363
275,1	1,381
275,6	1,398
276,1	1,415
276,5	1,43
277	1,443
277,4	1,461
277,9	1,47
278,4	1,48
278,8	1,492
279,3	1,501
279,8	1,51
280,2	1,52
280,7	1,526
281,1	1,529
281,6	1,531
282,1	1,533
282,5	1,532
283	1,53
283,4	1,529
283,9	1,527
284,4	1,526
284,8	1,522
285,3	1,515
285,8	1,509
286,2	1,5
286,7	1,49
287,1	1,477
287,6	1,464
288,1	1,45
288,5	1,436
289	1,42
289,5	1,405
289,9	1,385
290,4	1,365
290,8	1,343
291,3	1,32
291,8	1,296
292,2	1,271
292,7	1,244
293,1	1,218
293,6	1,19
294,1	1,162
294,5	1,132
295	1,102
295,5	1,072
295,9	1,042
296,4	1,01
296,8	0,98
297,3	0,948
297,8	0,917
298,2	0,886
298,7	0,854
299,1	0,823
299,6	0,792
300,1	0,761
300,5	0,731
301	0,701
301,5	0,672
301,9	0,643
302,4	0,615
302,8	0,587
303,3	0,561
303,8	0,535
304,2	0,51
304,7	0,485
305,1	0,462
305,6	0,44
306,1	0,419
306,5	0,398
307	0,378
307,4	0,358
307,9	0,34
308,4	0,323
308,8	0,306
309,3	0,29
309,8	0,275
310,2	0,261
310,7	0,248
311,1	0,235
311,6	0,223
312,1	0,212
312,5	0,201
313	0,192
313,4	0,182
313,9	0,173
314,4	0,165
314,8	0,157
315,3	0,15
315,7	0,143
316,2	0,136
316,7	0,13
317,1	0,124
317,6	0,119
318	0,114
318,5	0,109
319	0,105
319,4	0,1
319,9	0,096
320,3	0,093
320,8	0,089
321,3	0,086
321,7	0,082
322,2	0,08
322,6	0,077
323,1	0,075
323,6	0,072
324	0,07
324,5	0,068
324,9	0,067
325,4	0,065
325,9	0,064
326,3	0,062
326,8	0,06
327,2	0,059
327,7	0,057
328,2	0,056
328,6	0,055
329,1	0,053
329,5	0,053
330	0,052
330,5	0,051
330,9	0,05
331,4	0,048
331,8	0,047
332,3	0,047
332,8	0,046
333,2	0,045
333,7	0,044
334,1	0,044
334,6	0,043
335,1	0,043
335,5	0,042
336	0,041
336,4	0,041
336,9	0,04
337,4	0,039
337,8	0,038
338,3	0,037
338,7	0,036
339,2	0,036
339,7	0,035
340,1	0,034
340,6	0,034
341	0,033
341,5	0,033
342	0,032
342,4	0,032
342,9	0,032
343,3	0,032
343,8	0,031
344,2	0,031
344,7	0,03
345,2	0,03
345,6	0,03
346,1	0,029
346,5	0,029
347	0,029
347,5	0,029
347,9	0,028
348,4	0,028
348,8	0,027
349,3	0,027
349,8	0,026
350,2	0,026
350,7	0,025
351,1	0,025
351,6	0,025
352	0,024
352,5	0,023
353	0,023
353,4	0,023
353,9	0,023
354,3	0,023
354,8	0,023
355,3	0,023
355,7	0,022
356,2	0,022
356,6	0,022
357,1	0,021
357,5	0,02
358	0,02
358,5	0,019
358,9	0,019
359,4	0,019
359,8	0,019
360,3	0,018
360,8	0,018
361,2	0,017
361,7	0,017
362,1	0,017
362,6	0,017
363	0,017
363,5	0,017
364	0,016
364,4	0,016
364,9	0,016
365,3	0,015
365,8	0,015
366,3	0,014
366,7	0,014
367,2	0,014
367,6	0,014
368,1	0,014
368,5	0,013
369	0,013
369,5	0,012
369,9	0,012
370,4	0,012
370,8	0,012
371,3	0,012
371,7	0,012
372,2	0,012
372,7	0,012
373,1	0,011
373,6	0,011
374	0,011
374,5	0,01
374,9	0,01
375,4	0,009
375,9	0,009
376,3	0,009
376,8	0,009
377,2	0,008
377,7	0,008
378,2	0,008
378,6	0,008
379,1	0,008
379,5	0,008
380	0,008
380,4	0,008
380,9	0,007
381,4	0,006
381,8	0,005
382,3	0,005
382,7	0,005
383,2	0,005
383,6	0,005
384,1	0,005
384,6	0,005
385	0,005
385,5	0,005
385,9	0,005
386,4	0,004
386,8	0,004
387,3	0,003
387,7	0,003
388,2	0,003
388,7	0,002
389,1	0,002
389,6	0,002
390	0,003
390,5	0,003
390,9	0,003
391,4	0,002
391,9	0,002
392,3	0,002
392,8	0,001
393,2	0,002
393,7	0,002
394,1	0,002
394,6	0,001
395,1	0,001
395,5	0,001
396	0,001
396,4	0
396,9	-0
397,3	-0
397,8	-0
398,2	-0
398,7	-0
399,2	-0,001
399,6	-0,001
400,1	-0,001
400,5	-0,001
401	-0,001
401,4	-0,001
401,9	-0,001
402,4	-0,001
402,8	-0,001
403,3	-0,001
403,7	-0,001
404,2	-0,001
404,6	-0,001
405,1	-0,002
405,5	-0,002
406	-0,002
406,5	-0,003
406,9	-0,003
407,4	-0,003
407,8	-0,003
408,3	-0,003
408,7	-0,004
409,2	-0,004
409,6	-0,003
410,1	-0,003
410,6	-0,003
411	-0,004
411,5	-0,004
411,9	-0,004
412,4	-0,004
412,8	-0,004
413,3	-0,004
413,7	-0,004
414,2	-0,004
414,7	-0,004
415,1	-0,004
415,6	-0,004
416	-0,004
416,5	-0,004
416,9	-0,004
417,4	-0,004
417,8	-0,004
418,3	-0,004
418,8	-0,005
419,2	-0,005
419,7	-0,006
420,1	-0,006
420,6	-0,007
421	-0,007
421,5	-0,007
421,9	-0,007
422,4	-0,007
422,8	-0,007
423,3	-0,007
423,8	-0,007
424,2	-0,007
424,7	-0,007
425,1	-0,007
425,6	-0,007
426	-0,007
426,5	-0,007
426,9	-0,007
427,4	-0,007
427,9	-0,007
428,3	-0,007
428,8	-0,007
429,2	-0,007
429,7	-0,007
430,1	-0,007
430,6	-0,008
431	-0,008
431,5	-0,009
431,9	-0,009
432,4	-0,009
432,8	-0,009
433,3	-0,009
433,8	-0,009
434,2	-0,008
434,7	-0,008
435,1	-0,008
435,6	-0,008
436	-0,008
436,5	-0,008
436,9	-0,008
437,4	-0,008
437,8	-0,008
438,3	-0,009
438,8	-0,009
439,2	-0,009
439,7	-0,009
440,1	-0,01
440,6	-0,01
441	-0,01
441,5	-0,01
441,9	-0,01
442,4	-0,01
442,8	-0,01
443,3	-0,01
443,7	-0,01
444,2	-0,01
444,7	-0,01
445,1	-0,01
445,6	-0,009
446	-0,01
446,5	-0,01
446,9	-0,01
447,4	-0,01
447,8	-0,01
448,3	-0,01
448,7	-0,01
449,2	-0,01
449,6	-0,01
450,1	-0,01
450,6	-0,011
451	-0,011
451,5	-0,011
451,9	-0,011
452,4	-0,011
452,8	-0,011
453,3	-0,011
453,7	-0,011
454,2	-0,011
454,6	-0,011
455,1	-0,011
455,5	-0,012
456	-0,012
456,4	-0,012
456,9	-0,012
457,3	-0,012
457,8	-0,012
458,3	-0,012
458,7	-0,012
459,2	-0,012
459,6	-0,012
460,1	-0,012
460,5	-0,012
461	-0,012
461,4	-0,013
461,9	-0,013
462,3	-0,013
462,8	-0,013
463,2	-0,013
463,7	-0,013
464,1	-0,013
464,6	-0,013
465	-0,013
465,5	-0,013
466	-0,013
466,4	-0,013
466,9	-0,013
467,3	-0,014
467,8	-0,014
468,2	-0,014
468,7	-0,014
469,1	-0,014
469,6	-0,014
470	-0,014
470,5	-0,014
470,9	-0,013
471,4	-0,013
471,8	-0,014
472,3	-0,013
472,7	-0,014
473,2	-0,013
473,6	-0,014
474,1	-0,013
474,5	-0,013
475	-0,013
475,4	-0,013
475,9	-0,013
476,4	-0,014
476,8	-0,014
477,3	-0,014
477,7	-0,014
478,2	-0,014
478,6	-0,014
479,1	-0,014
479,5	-0,014
480	-0,014
480,4	-0,014
480,9	-0,014
481,3	-0,015
481,8	-0,014
482,2	-0,015
482,7	-0,015
483,1	-0,015
483,6	-0,016
484	-0,015
484,5	-0,016
484,9	-0,016
485,4	-0,016
485,8	-0,016
486,3	-0,016
486,7	-0,016
487,2	-0,016
487,6	-0,015
488,1	-0,014
488,5	-0,014
489	-0,014
489,4	-0,014
489,9	-0,014
490,4	-0,014
490,8	-0,015
491,3	-0,015
491,7	-0,015
492,2	-0,016
492,6	-0,016
493,1	-0,016
493,5	-0,016
494	-0,016
494,4	-0,016
494,9	-0,016
495,3	-0,016
495,8	-0,016
496,2	-0,016
496,7	-0,016
497,1	-0,016
497,6	-0,017
498	-0,016
498,5	-0,016
498,9	-0,016
499,4	-0,016
499,8	-0,016
500,3	-0,017
500,7	-0,017
501,2	-0,017
501,6	-0,017
502,1	-0,017
502,5	-0,017
503	-0,017
503,4	-0,017
503,9	-0,017
504,3	-0,017
504,8	-0,017
505,2	-0,016
505,7	-0,016
506,1	-0,017
506,6	-0,017
507	-0,016
507,5	-0,016
507,9	-0,017
508,4	-0,017
508,8	-0,017
509,3	-0,017
509,7	-0,017
510,2	-0,017
510,6	-0,017
511,1	-0,017
511,5	-0,017
512	-0,017
512,4	-0,016
512,9	-0,017
513,3	-0,018
513,8	-0,018
514,2	-0,019
514,7	-0,019
515,1	-0,019
515,6	-0,018
516	-0,018
516,5	-0,018
516,9	-0,018
517,4	-0,018
517,8	-0,018
518,3	-0,019
518,7	-0,018
519,2	-0,019
519,6	-0,018
520,1	-0,018
520,5	-0,018
521	-0,017
521,4	-0,017
521,9	-0,018
522,3	-0,018
522,8	-0,018
523,2	-0,018
523,7	-0,018
524,1	-0,018
524,6	-0,018
525	-0,018
525,5	-0,018
525,9	-0,018
526,4	-0,019
526,8	-0,019
527,3	-0,019
527,7	-0,019
528,2	-0,019
528,6	-0,019
529,1	-0,019
529,5	-0,019
530	-0,019
530,4	-0,02
530,9	-0,02
531,3	-0,02
531,8	-0,02
532,2	-0,02
532,6	-0,02
533,1	-0,02
533,5	-0,02
534	-0,02
534,4	-0,02
534,9	-0,02
535,3	-0,02
535,8	-0,02
536,2	-0,02
536,7	-0,02
537,1	-0,02
537,6	-0,019
538	-0,019
538,5	-0,019
538,9	-0,019
539,4	-0,02
539,8	-0,02
540,3	-0,02
540,7	-0,02
541,2	-0,02
541,6	-0,021
542,1	-0,021
542,5	-0,021
543	-0,02
543,4	-0,02
543,9	-0,02
544,3	-0,02
544,8	-0,02
545,2	-0,02
545,7	-0,02
546,1	-0,02
546,5	-0,021
547	-0,021
547,4	-0,021
547,9	-0,021
548,3	-0,021
548,8	-0,021
549,2	-0,021
549,7	-0,02
550,1	-0,02
550,6	-0,02
551	-0,02
551,5	-0,02
551,9	-0,02
552,4	-0,02
552,8	-0,02
553,3	-0,02
553,7	-0,021
554,2	-0,021
554,6	-0,021
555,1	-0,02
555,5	-0,02
555,9	-0,02
556,4	-0,02
556,8	-0,021
557,3	-0,02
557,7	-0,02
558,2	-0,021
558,6	-0,021
559,1	-0,021
559,5	-0,022
560	-0,021
560,4	-0,021
560,9	-0,021
561,3	-0,021
561,8	-0,021
562,2	-0,021
562,7	-0,021
563,1	-0,021
563,6	-0,021
564	-0,021
564,4	-0,021
564,9	-0,021
565,3	-0,021
565,8	-0,021
566,2	-0,021
566,7	-0,022
567,1	-0,022
567,6	-0,022
568	-0,022
568,5	-0,022
568,9	-0,023
569,4	-0,023
569,8	-0,023
570,3	-0,023
570,7	-0,023
571,1	-0,023
571,6	-0,022
572	-0,022
572,5	-0,022
572,9	-0,022
573,4	-0,022
573,8	-0,023
574,3	-0,023
574,7	-0,023
575,2	-0,023
575,6	-0,023
576,1	-0,023
576,5	-0,023
576,9	-0,023
577,4	-0,022
577,8	-0,022
578,3	-0,022
578,7	-0,022
579,2	-0,022
579,6	-0,021
580,1	-0,022
580,5	-0,022
581	-0,022
581,4	-0,022
581,9	-0,022
582,3	-0,022
582,7	-0,022
583,2	-0,022
583,6	-0,022
584,1	-0,022
584,5	-0,022
585	-0,022
585,4	-0,022
585,9	-0,022
586,3	-0,022
586,8	-0,022
587,2	-0,022
587,6	-0,022
588,1	-0,022
588,5	-0,022
589	-0,022
589,4	-0,022
589,9	-0,022
590,3	-0,022
590,8	-0,022
591,2	-0,023
591,7	-0,023
592,1	-0,023
592,5	-0,023
593	-0,023
593,4	-0,023
593,9	-0,023
594,3	-0,023
594,8	-0,022
595,2	-0,022
595,7	-0,022
596,1	-0,023
596,6	-0,023
597	-0,023
597,4	-0,023
597,9	-0,023
598,3	-0,023
598,8	-0,024
599,2	-0,023
599,7	-0,023
600,1	-0,023
600,6	-0,023
601	-0,023
601,4	-0,023
601,9	-0,023
602,3	-0,023
602,8	-0,023
603,2	-0,023
603,7	-0,023
604,1	-0,023
604,6	-0,023
605	-0,023
605,4	-0,023
605,9	-0,023
606,3	-0,023
606,8	-0,023
607,2	-0,024
607,7	-0,024
608,1	-0,023
608,6	-0,024
609	-0,024
609,4	-0,024
609,9	-0,024
610,3	-0,024
610,8	-0,024
611,2	-0,024
611,7	-0,024
612,1	-0,025
612,6	-0,025
613	-0,025
613,4	-0,025
613,9	-0,025
614,3	-0,025
614,8	-0,025
615,2	-0,024
615,7	-0,024
616,1	-0,023
616,6	-0,023
617	-0,023
617,4	-0,023
617,9	-0,023
618,3	-0,023
618,8	-0,023
619,2	-0,024
619,7	-0,024
620,1	-0,024
620,5	-0,024
621	-0,024
621,4	-0,024
621,9	-0,024
622,3	-0,024
622,8	-0,024
623,2	-0,024
623,6	-0,024
624,1	-0,024
624,5	-0,024
625	-0,024
625,4	-0,024
625,9	-0,024
626,3	-0,023
626,8	-0,023
627,2	-0,023
627,6	-0,023
628,1	-0,023
628,5	-0,023
629	-0,023
629,4	-0,023
629,9	-0,024
630,3	-0,024
630,7	-0,024
631,2	-0,024
631,6	-0,024
632,1	-0,024
632,5	-0,024
633	-0,024
633,4	-0,024
633,8	-0,024
634,3	-0,024
634,7	-0,024
635,2	-0,024
635,6	-0,024
636,1	-0,024
636,5	-0,024
636,9	-0,024
637,4	-0,024
637,8	-0,024
638,3	-0,024
638,7	-0,024
639,2	-0,023
639,6	-0,023
640	-0,024
640,5	-0,024
640,9	-0,024
641,4	-0,024
641,8	-0,024
642,2	-0,025
642,7	-0,025
643,1	-0,025
643,6	-0,025
644	-0,025
644,5	-0,025
644,9	-0,025
645,3	-0,024
645,8	-0,024
646,2	-0,024
646,7	-0,024
647,1	-0,024
647,6	-0,024
648	-0,025
648,4	-0,024
648,9	-0,025
649,3	-0,025
649,8	-0,025
650,2	-0,025
650,6	-0,025
651,1	-0,025
651,5	-0,025
652	-0,025
652,4	-0,025
652,9	-0,025
653,3	-0,024
653,7	-0,023
654,2	-0,015
654,6	-0,011
655,1	-0,008
655,5	-0,008
655,9	-0,007
656,4	-0,007
656,8	-0,005
657,3	-0,007
657,7	-0,01
658,2	-0,016
658,6	-0,02
659	-0,022
659,5	-0,023
659,9	-0,023
660,4	-0,024
660,8	-0,024
661,2	-0,024
661,7	-0,025
662,1	-0,025
662,6	-0,024
663	-0,025
663,4	-0,024
663,9	-0,024
664,3	-0,025
664,8	-0,024
665,2	-0,024
665,6	-0,024
666,1	-0,024
666,5	-0,024
667	-0,024
667,4	-0,024
667,9	-0,024
668,3	-0,024
668,7	-0,024
669,2	-0,024
669,6	-0,024
670,1	-0,024
670,5	-0,024
670,9	-0,024
671,4	-0,025
671,8	-0,025
672,3	-0,025
672,7	-0,024
673,1	-0,024
673,6	-0,025
674	-0,024
674,5	-0,024
674,9	-0,024
675,3	-0,024
675,8	-0,024
676,2	-0,024
676,7	-0,024
677,1	-0,025
677,5	-0,025
678	-0,025
678,4	-0,025
678,9	-0,025
679,3	-0,025
679,7	-0,025
680,2	-0,024
680,6	-0,024
681,1	-0,024
681,5	-0,024
681,9	-0,024
682,4	-0,025
682,8	-0,025
683,3	-0,026
683,7	-0,026
684,1	-0,026
684,6	-0,026
685	-0,026
685,5	-0,026
685,9	-0,025
686,3	-0,025
686,8	-0,025
687,2	-0,025
687,7	-0,025
688,1	-0,026
688,5	-0,026
689	-0,025
689,4	-0,025
689,9	-0,025
690,3	-0,025
690,7	-0,025
691,2	-0,025
691,6	-0,025
692	-0,025
692,5	-0,025
692,9	-0,024
693,4	-0,024
693,8	-0,024
694,2	-0,024
694,7	-0,024
695,1	-0,024
695,6	-0,024
696	-0,024
696,4	-0,024
696,9	-0,024
697,3	-0,025
697,8	-0,024
698,2	-0,025
698,6	-0,025
699,1	-0,025
699,5	-0,025
699,9	-0,025
700,4	-0,024
700,8	-0,025
701,3	-0,025
701,7	-0,025
702,1	-0,025
702,6	-0,025
703	-0,025
703,5	-0,025
703,9	-0,025
704,3	-0,025
704,8	-0,025
705,2	-0,025
705,6	-0,025
706,1	-0,025
706,5	-0,025
707	-0,025
707,4	-0,025
707,8	-0,025
708,3	-0,025
708,7	-0,025
709,2	-0,025
709,6	-0,025
710	-0,025
710,5	-0,025
710,9	-0,025
711,3	-0,025
711,8	-0,025
712,2	-0,025
712,7	-0,026
713,1	-0,025
713,5	-0,025
714	-0,026
714,4	-0,025
714,8	-0,025
715,3	-0,025
715,7	-0,025
716,2	-0,025
716,6	-0,025
717	-0,025
717,5	-0,025
717,9	-0,026
718,3	-0,026
718,8	-0,026
719,2	-0,026
719,7	-0,026
720,1	-0,026
720,5	-0,026
721	-0,026
721,4	-0,026
721,8	-0,026
722,3	-0,026
722,7	-0,026
723,2	-0,025
723,6	-0,026
724	-0,026
724,5	-0,025
724,9	-0,025
725,3	-0,025
725,8	-0,025
726,2	-0,025
726,7	-0,025
727,1	-0,025
727,5	-0,025
728	-0,025
728,4	-0,025
728,8	-0,026
729,3	-0,026
729,7	-0,026
730,1	-0,026
730,6	-0,026
731	-0,027
731,5	-0,027
731,9	-0,027
732,3	-0,026
732,8	-0,026
733,2	-0,026
733,6	-0,026
734,1	-0,026
734,5	-0,026
734,9	-0,026
735,4	-0,025
735,8	-0,026
736,3	-0,025
736,7	-0,025
737,1	-0,025
737,6	-0,025
738	-0,025
738,4	-0,025
738,9	-0,024
739,3	-0,024
739,7	-0,025
740,2	-0,025
740,6	-0,025
741,1	-0,025
741,5	-0,025
741,9	-0,025
742,4	-0,025
742,8	-0,025
743,2	-0,025
743,7	-0,026
744,1	-0,026
744,5	-0,026
745	-0,026
745,4	-0,026
745,8	-0,025
746,3	-0,025
746,7	-0,025
747,2	-0,025
747,6	-0,024
748	-0,025
748,5	-0,025
748,9	-0,026
749,3	-0,026
749,8	-0,026
750,2	-0,026
750,6	-0,026
751,1	-0,025
751,5	-0,025
751,9	-0,025
752,4	-0,025
752,8	-0,025
753,3	-0,026
753,7	-0,026
754,1	-0,026
754,6	-0,026
755	-0,026
755,4	-0,026
755,9	-0,026
756,3	-0,026
756,7	-0,026
757,2	-0,026
757,6	-0,026
758	-0,025
758,5	-0,025
758,9	-0,025
759,3	-0,025
759,8	-0,025
760,2	-0,025
760,6	-0,025
761,1	-0,025
761,5	-0,025
761,9	-0,025
762,4	-0,025
762,8	-0,026
763,3	-0,026
763,7	-0,026
764,1	-0,025
764,6	-0,025
765	-0,025
765,4	-0,025
765,9	-0,025
766,3	-0,024
766,7	-0,024
767,2	-0,025
767,6	-0,025
768	-0,025
768,5	-0,026
768,9	-0,026
769,3	-0,026
769,8	-0,026
770,2	-0,026
770,6	-0,025
771,1	-0,025
771,5	-0,025
771,9	-0,025
772,4	-0,025
772,8	-0,025
773,2	-0,025
773,7	-0,025
774,1	-0,025
774,5	-0,025
775	-0,025
775,4	-0,025
775,8	-0,025
776,3	-0,025
776,7	-0,025
777,1	-0,025
777,6	-0,025
778	-0,025
778,4	-0,025
778,9	-0,025
779,3	-0,025
779,7	-0,025
780,2	-0,025
780,6	-0,025
781	-0,025
781,5	-0,025
781,9	-0,025
782,3	-0,026
782,8	-0,025
783,2	-0,025
783,6	-0,025
784,1	-0,025
784,5	-0,025
784,9	-0,026
785,4	-0,025
785,8	-0,026
786,2	-0,026
786,7	-0,026
787,1	-0,026
787,5	-0,026
788	-0,026
788,4	-0,026
788,8	-0,026
789,3	-0,026
789,7	-0,026
790,1	-0,026
790,6	-0,026
791	-0,025
791,4	-0,026
791,9	-0,026
792,3	-0,026
792,7	-0,026
793,2	-0,025
793,6	-0,025
794	-0,025
794,5	-0,025
794,9	-0,025
795,3	-0,025
795,8	-0,025
796,2	-0,025
796,6	-0,025
797,1	-0,026
797,5	-0,025
797,9	-0,026
798,4	-0,026
798,8	-0,026
799,2	-0,026
799,7	-0,026
800,1	-0,026
800,5	-0,026
801	-0,026
801,4	-0,026
801,8	-0,026
802,2	-0,025
802,7	-0,025
803,1	-0,025
803,5	-0,025
804	-0,025
804,4	-0,025
804,8	-0,025
805,3	-0,025
805,7	-0,025
806,1	-0,025
806,6	-0,026
807	-0,026
807,4	-0,026
807,9	-0,026
808,3	-0,026
808,7	-0,026
809,2	-0,026
809,6	-0,026
810	-0,026
810,4	-0,025
810,9	-0,025
811,3	-0,025
811,7	-0,025
812,2	-0,025
812,6	-0,024
813	-0,024
813,5	-0,025
813,9	-0,025
814,3	-0,025
814,8	-0,025
815,2	-0,024
815,6	-0,025
816,1	-0,025
816,5	-0,025
816,9	-0,025
817,3	-0,025
817,8	-0,025
818,2	-0,025
818,6	-0,026
819,1	-0,026
819,5	-0,026
819,9	-0,026
820,4	-0,026
820,8	-0,026
821,2	-0,026
821,7	-0,025
822,1	-0,025
822,5	-0,025
822,9	-0,025
823,4	-0,025
823,8	-0,025
824,2	-0,025
824,7	-0,025
825,1	-0,025
825,5	-0,026
826	-0,025
826,4	-0,025
826,8	-0,025
827,3	-0,025
827,7	-0,025
828,1	-0,025
828,5	-0,025
829	-0,025
829,4	-0,025
829,8	-0,025
830,3	-0,025
830,7	-0,025
831,1	-0,025
831,6	-0,025
832	-0,025
832,4	-0,025
832,8	-0,025
833,3	-0,025
833,7	-0,026
834,1	-0,026
834,6	-0,026
835	-0,026
835,4	-0,026
835,8	-0,025
836,3	-0,026
836,7	-0,025
837,1	-0,025
837,6	-0,025
838	-0,025
838,4	-0,025
838,9	-0,025
839,3	-0,025
839,7	-0,025
840,1	-0,024
840,6	-0,025
841	-0,025
841,4	-0,025
841,9	-0,026
842,3	-0,026
842,7	-0,026
843,1	-0,026
843,6	-0,026
844	-0,025
844,4	-0,025
844,9	-0,025
845,3	-0,025
845,7	-0,025
846,2	-0,025
846,6	-0,025
847	-0,025
847,4	-0,025
847,9	-0,025
848,3	-0,025
848,7	-0,025
849,2	-0,026
849,6	-0,026
850	-0,026
850,4	-0,026
850,9	-0,026
851,3	-0,026
851,7	-0,026
852,2	-0,026
852,6	-0,026
853	-0,025
853,4	-0,025
853,9	-0,025
854,3	-0,025
854,7	-0,025
855,2	-0,025
855,6	-0,025
856	-0,025
856,4	-0,025
856,9	-0,025
857,3	-0,025
857,7	-0,025
858,2	-0,025
858,6	-0,025
859	-0,025
859,4	-0,025
859,9	-0,025
860,3	-0,026
860,7	-0,026
861,1	-0,026
861,6	-0,026
862	-0,026
862,4	-0,026
862,9	-0,026
863,3	-0,026
863,7	-0,026
864,1	-0,025
864,6	-0,026
865	-0,026
865,4	-0,025
865,9	-0,025
866,3	-0,025
866,7	-0,025
867,1	-0,025
867,6	-0,025
868	-0,025
868,4	-0,025
868,8	-0,025
869,3	-0,025
869,7	-0,025
870,1	-0,025
870,6	-0,024
871	-0,024
871,4	-0,025
871,8	-0,025
872,3	-0,025
872,7	-0,025
873,1	-0,025
873,5	-0,026
874	-0,026
874,4	-0,026
874,8	-0,026
875,3	-0,026
875,7	-0,026
876,1	-0,026
876,5	-0,026
877	-0,025
877,4	-0,025
877,8	-0,025
878,2	-0,025
878,7	-0,025
879,1	-0,025
879,5	-0,025
879,9	-0,025
880,4	-0,025
880,8	-0,025
881,2	-0,026
881,7	-0,026
882,1	-0,025
882,5	-0,025
882,9	-0,025
883,4	-0,025
883,8	-0,025
884,2	-0,025
884,6	-0,025
885,1	-0,025
885,5	-0,025
885,9	-0,025
886,3	-0,025
886,8	-0,025
887,2	-0,026
887,6	-0,026
888	-0,026
888,5	-0,026
888,9	-0,026
889,3	-0,025
889,8	-0,026
890,2	-0,026
890,6	-0,026
891	-0,026
891,5	-0,026
891,9	-0,026
892,3	-0,026
892,7	-0,026
893,2	-0,026
893,6	-0,026
894	-0,026
894,4	-0,026
894,9	-0,026
895,3	-0,026
895,7	-0,026
896,1	-0,026
896,6	-0,026
897	-0,026
897,4	-0,026
897,8	-0,026
898,3	-0,026
898,7	-0,026
899,1	-0,026
899,5	-0,026
900	-0,026
900,4	-0,026
900,8	-0,026
901,2	-0,026
901,7	-0,026
902,1	-0,026
902,5	-0,026
902,9	-0,026
903,4	-0,026
903,8	-0,026
904,2	-0,026
904,6	-0,025
905,1	-0,025
905,5	-0,025
905,9	-0,025
906,3	-0,025
906,8	-0,025
907,2	-0,025
907,6	-0,025
908	-0,026
908,5	-0,026
908,9	-0,026
909,3	-0,025
909,7	-0,025
910,2	-0,025
910,6	-0,025
911	-0,025
911,4	-0,025
911,9	-0,025
912,3	-0,025
912,7	-0,025
913,1	-0,025
913,6	-0,025
914	-0,025
914,4	-0,025
914,8	-0,026
915,3	-0,026
915,7	-0,027
916,1	-0,027
916,5	-0,027
916,9	-0,027
917,4	-0,027
917,8	-0,027
918,2	-0,027
918,6	-0,026
919,1	-0,026
919,5	-0,025
919,9	-0,025
920,3	-0,025
920,8	-0,025
921,2	-0,026
921,6	-0,026
922	-0,026
922,5	-0,026
922,9	-0,027
923,3	-0,027
923,7	-0,027
924,2	-0,026
924,6	-0,026
925	-0,026
925,4	-0,026
925,8	-0,026
926,3	-0,026
926,7	-0,025
927,1	-0,026
927,5	-0,026
928	-0,026
928,4	-0,025
928,8	-0,025
929,2	-0,024
929,7	-0,024
930,1	-0,024
930,5	-0,024
930,9	-0,024
931,3	-0,024
931,8	-0,025
932,2	-0,025
932,6	-0,025
933	-0,025
933,5	-0,025
933,9	-0,025
934,3	-0,025
934,7	-0,025
935,2	-0,025
935,6	-0,025
936	-0,025
936,4	-0,025
936,8	-0,025
937,3	-0,025
937,7	-0,025
938,1	-0,025
938,5	-0,025
939	-0,026
939,4	-0,026
939,8	-0,026
940,2	-0,026
940,6	-0,026
941,1	-0,026
941,5	-0,026
941,9	-0,026
942,3	-0,026
942,8	-0,026
943,2	-0,026
943,6	-0,026
944	-0,026
944,4	-0,026
944,9	-0,026
945,3	-0,026
945,7	-0,026
946,1	-0,026
946,6	-0,026
947	-0,026
947,4	-0,026
947,8	-0,026
948,2	-0,027
948,7	-0,027
949,1	-0,027
949,5	-0,027
949,9	-0,027
950,3	-0,027
950,8	-0,027
951,2	-0,026
951,6	-0,026
952	-0,026
952,5	-0,026
952,9	-0,026
953,3	-0,026
953,7	-0,026
954,1	-0,026
954,6	-0,026
955	-0,025
955,4	-0,025
955,8	-0,026
956,2	-0,026
956,7	-0,025
957,1	-0,026
957,5	-0,027
957,9	-0,027
958,3	-0,027
958,8	-0,026
959,2	-0,026
959,6	-0,026
960	-0,026
960,5	-0,025
960,9	-0,025
961,3	-0,025
961,7	-0,025
962,1	-0,025
962,6	-0,025
963	-0,025
963,4	-0,025
963,8	-0,025
964,2	-0,025
964,7	-0,025
965,1	-0,025
965,5	-0,025
965,9	-0,024
966,3	-0,024
966,8	-0,024
967,2	-0,025
967,6	-0,026
968	-0,026
968,4	-0,025
968,9	-0,026
969,3	-0,026
969,7	-0,026
970,1	-0,025
970,5	-0,025
971	-0,025
971,4	-0,026
971,8	-0,026
972,2	-0,026
972,6	-0,026
973,1	-0,026
973,5	-0,026
973,9	-0,026
974,3	-0,026
974,7	-0,026
975,2	-0,026
975,6	-0,026
976	-0,027
976,4	-0,027
976,8	-0,027
977,3	-0,027
977,7	-0,027
978,1	-0,027
978,5	-0,026
978,9	-0,026
979,4	-0,027
979,8	-0,026
980,2	-0,026
980,6	-0,026
981	-0,026
981,5	-0,026
981,9	-0,026
982,3	-0,025
982,7	-0,026
983,1	-0,026
983,6	-0,026
984	-0,025
984,4	-0,025
984,8	-0,025
985,2	-0,026
985,6	-0,025
986,1	-0,025
986,5	-0,025
986,9	-0,025
987,3	-0,025
987,7	-0,025
988,2	-0,025
988,6	-0,025
989	-0,025
989,4	-0,025
989,8	-0,026
990,3	-0,026
990,7	-0,026
991,1	-0,026
991,5	-0,026
991,9	-0,026
992,3	-0,026
992,8	-0,026
993,2	-0,026
993,6	-0,026
994	-0,026
994,4	-0,025
994,9	-0,025
995,3	-0,025
995,7	-0,025
996,1	-0,025
996,5	-0,026
996,9	-0,025
997,4	-0,026
997,8	-0,026
998,2	-0,026
998,6	-0,026
999	-0,026
999,5	-0,026
999,9	-0,026
1000,3	-0,026
1000,7	-0,026
1001,1	-0,026
1001,5	-0,026
1002	-0,026
1002,4	-0,026
1002,8	-0,026
1003,2	-0,027
1003,6	-0,027
1004	-0,026
1004,5	-0,027
1004,9	-0,027
1005,3	-0,027
1005,7	-0,026
1006,1	-0,026
1006,6	-0,026
1007	-0,026
1007,4	-0,026
1007,8	-0,026
1008,2	-0,025
1008,6	-0,025
1009,1	-0,024
1009,5	-0,024
1009,9	-0,023
1010,3	-0,024
1010,7	-0,023
1011,1	-0,024
1011,6	-0,023
1012	-0,024
1012,4	-0,025
1012,8	-0,025
1013,2	-0,026
1013,6	-0,025
1014,1	-0,026
1014,5	-0,027
1014,9	-0,027
1015,3	-0,027
1015,7	-0,027
1016,1	-0,027
1016,6	-0,027
1017	-0,026
1017,4	-0,026
1017,8	-0,025
1018,2	-0,026
1018,6	-0,026
1019,1	-0,025
1019,5	-0,025
1019,9	-0,025
1020,3	-0,024
1020,7	-0,024
1021,1	-0,024
1021,6	-0,023
1022	-0,023
1022,4	-0,024
1022,8	-0,024
1023,2	-0,024
1023,6	-0,025
1024,1	-0,025
1024,5	-0,025
1024,9	-0,025
1025,3	-0,024
1025,7	-0,025
1026,1	-0,025
1026,6	-0,025
1027	-0,024
1027,4	-0,024
1027,8	-0,025
1028,2	-0,025
1028,6	-0,025
1029	-0,025
1029,5	-0,025
1029,9	-0,025
1030,3	-0,026
1030,7	-0,025
1031,1	-0,026
1031,5	-0,026
1032	-0,026
1032,4	-0,025
1032,8	-0,026
1033,2	-0,026
1033,6	-0,026
1034	-0,027
1034,4	-0,027
1034,9	-0,027
1035,3	-0,027
1035,7	-0,027
1036,1	-0,026
1036,5	-0,027
1036,9	-0,026
1037,4	-0,026
1037,8	-0,026
1038,2	-0,026
1038,6	-0,026
1039	-0,027
1039,4	-0,026
1039,8	-0,026
1040,3	-0,026
1040,7	-0,026
1041,1	-0,025
1041,5	-0,025
1041,9	-0,025
1042,3	-0,026
1042,7	-0,025
1043,2	-0,025
1043,6	-0,025
1044	-0,025
1044,4	-0,026
1044,8	-0,025
1045,2	-0,025
1045,6	-0,025
1046,1	-0,025
1046,5	-0,025
1046,9	-0,025
1047,3	-0,025
1047,7	-0,026
1048,1	-0,026
1048,5	-0,027
1049	-0,027
1049,4	-0,027
1049,8	-0,027
1050,2	-0,027
1050,6	-0,026
1051	-0,026
1051,4	-0,025
1051,9	-0,025
1052,3	-0,025
1052,7	-0,025
1053,1	-0,024
1053,5	-0,024
1053,9	-0,024
1054,3	-0,024
1054,8	-0,024
1055,2	-0,024
1055,6	-0,024
1056	-0,025
1056,4	-0,025
1056,8	-0,026
1057,2	-0,026
1057,6	-0,026
1058,1	-0,026
1058,5	-0,025
1058,9	-0,025
1059,3	-0,025
1059,7	-0,025
1060,1	-0,027
1060,5	-0,026
1061	-0,027
1061,4	-0,028
1061,8	-0,027
1062,2	-0,027
1062,6	-0,028
1063	-0,026
1063,4	-0,026
1063,8	-0,026
1064,3	-0,026
1064,7	-0,025
1065,1	-0,024
1065,5	-0,024
1065,9	-0,025
1066,3	-0,025
1066,7	-0,025
1067,1	-0,025
1067,6	-0,026
1068	-0,027
1068,4	-0,026
1068,8	-0,026
1069,2	-0,025
1069,6	-0,024
1070	-0,024
1070,4	-0,024
1070,9	-0,024
1071,3	-0,025
1071,7	-0,026
1072,1	-0,026
1072,5	-0,027
1072,9	-0,027
1073,3	-0,027
1073,7	-0,027
1074,2	-0,027
1074,6	-0,026
1075	-0,026
1075,4	-0,026
1075,8	-0,026
1076,2	-0,027
1076,6	-0,027
1077	-0,026
1077,5	-0,026
1077,9	-0,026
1078,3	-0,026
1078,7	-0,025
1079,1	-0,025
1079,5	-0,025
1079,9	-0,027
1080,3	-0,028
1080,7	-0,027
1081,2	-0,028
1081,6	-0,029
1082	-0,03
1082,4	-0,029
1082,8	-0,028
1083,2	-0,027
1083,6	-0,026
1084	-0,026
1084,5	-0,024
1084,9	-0,024
1085,3	-0,022
1085,7	-0,024
1086,1	-0,023
1086,5	-0,026
1086,9	-0,026
1087,3	-0,028
1087,7	-0,028
1088,2	-0,03
1088,6	-0,029
1089	-0,029
1089,4	-0,026
1089,8	-0,024
1090,2	-0,024
1090,6	-0,021
1091	-0,02
1091,4	-0,022
1091,9	-0,025
1092,3	-0,026
1092,7	-0,024
1093,1	-0,025
1093,5	-0,031
1093,9	-0,03
1094,3	-0,031
1094,7	-0,029
1095,1	-0,031
1095,5	-0,029
1096	-0,03
1096,4	-0,027
1096,8	-0,03
1097,2	-0,027
1097,6	-0,026
1098	-0,032
1098,4	-0,037
1098,8	-0,031
1099,2	-0,034
1099,6	-0,032
1100,1	-0,034
1100,5	-0,032
1100,9	-0,021
1101,3	-0,026
1101,7	-0,026
1102,1	-0,027
1102,5	-0,023
1102,9	-0,027
1103,3	-0,028
1103,7	-0,028
1104,2	-0,025
1104,6	-0,03
1105	-0,033
1105,4	-0,036
1105,8	-0,034
1106,2	-0,035
1106,6	-0,044
1107	-0,045
1107,4	-0,053
1107,8	-0,052
1108,3	-0
