Data from Absorbance_032.txt Node
Date: Fri Nov 13 13:15:52 MSK 2020
User: vat
Spectrometer: MAYP114033
Trigger mode: 0
Integration Time (sec): 8,000000E-3
Scans to average: 10
Electric dark correction enabled: true
Nonlinearity correction enabled: false
Boxcar width: 3
XAxis mode: Wavelengths
Number of Pixels in Spectrum: 2068
>>>>>Begin Spectral Data<<<<<
199,4	-0
199,9	0,108
200,4	0,133
200,8	0,086
201,3	0,032
201,8	0,076
202,2	0,061
202,7	0,051
203,2	0,053
203,6	0,062
204,1	0,067
204,6	0,052
205	0,043
205,5	0,039
206	0,037
206,4	0,039
206,9	0,022
207,4	0,001
207,8	0,021
208,3	0,03
208,8	0,042
209,2	0,047
209,7	0,043
210,2	0,04
210,6	0,06
211,1	0,053
211,5	0,036
212	0,05
212,5	0,03
212,9	0,052
213,4	0,057
213,9	0,055
214,3	0,062
214,8	0,068
215,3	0,055
215,7	0,072
216,2	0,058
216,7	0,05
217,1	0,047
217,6	0,049
218,1	0,07
218,5	0,075
219	0,073
219,5	0,072
219,9	0,067
220,4	0,057
220,9	0,04
221,3	0,024
221,8	0,02
222,3	0,018
222,7	0,019
223,2	0,043
223,6	0,063
224,1	0,075
224,6	0,078
225	0,079
225,5	0,07
226	0,077
226,4	0,069
226,9	0,046
227,4	0,028
227,8	0,028
228,3	0,016
228,8	0,025
229,2	0,016
229,7	0,008
230,2	0,012
230,6	0,037
231,1	0,029
231,5	0,045
232	0,051
232,5	0,039
232,9	0,038
233,4	0,042
233,9	0,027
234,3	0,036
234,8	0,023
235,3	0,02
235,7	0,03
236,2	0,041
236,7	0,046
237,1	0,046
237,6	0,045
238,1	0,045
238,5	0,052
239	0,056
239,4	0,045
239,9	0,039
240,4	0,035
240,8	0,046
241,3	0,059
241,8	0,052
242,2	0,049
242,7	0,061
243,2	0,065
243,6	0,083
244,1	0,07
244,6	0,061
245	0,059
245,5	0,063
245,9	0,065
246,4	0,061
246,9	0,054
247,3	0,06
247,8	0,06
248,3	0,067
248,7	0,068
249,2	0,056
249,7	0,058
250,1	0,06
250,6	0,056
251	0,054
251,5	0,053
252	0,05
252,4	0,053
252,9	0,052
253,4	0,048
253,8	0,046
254,3	0,045
254,8	0,047
255,2	0,047
255,7	0,048
256,1	0,05
256,6	0,053
257,1	0,054
257,5	0,057
258	0,058
258,5	0,061
258,9	0,064
259,4	0,066
259,9	0,068
260,3	0,071
260,8	0,074
261,2	0,076
261,7	0,079
262,2	0,08
262,6	0,084
263,1	0,087
263,6	0,09
264	0,094
264,5	0,099
264,9	0,103
265,4	0,106
265,9	0,109
266,3	0,113
266,8	0,117
267,3	0,122
267,7	0,125
268,2	0,128
268,7	0,132
269,1	0,136
269,6	0,139
270	0,143
270,5	0,145
271	0,148
271,4	0,152
271,9	0,155
272,4	0,159
272,8	0,163
273,3	0,167
273,7	0,17
274,2	0,174
274,7	0,177
275,1	0,18
275,6	0,183
276,1	0,186
276,5	0,189
277	0,191
277,4	0,194
277,9	0,197
278,4	0,199
278,8	0,2
279,3	0,203
279,8	0,205
280,2	0,206
280,7	0,207
281,1	0,208
281,6	0,21
282,1	0,211
282,5	0,211
283	0,211
283,4	0,211
283,9	0,211
284,4	0,211
284,8	0,21
285,3	0,209
285,8	0,209
286,2	0,207
286,7	0,206
287,1	0,204
287,6	0,202
288,1	0,199
288,5	0,197
289	0,194
289,5	0,192
289,9	0,189
290,4	0,187
290,8	0,184
291,3	0,18
291,8	0,176
292,2	0,172
292,7	0,168
293,1	0,164
293,6	0,159
294,1	0,154
294,5	0,15
295	0,145
295,5	0,141
295,9	0,136
296,4	0,132
296,8	0,127
297,3	0,122
297,8	0,117
298,2	0,112
298,7	0,108
299,1	0,102
299,6	0,097
300,1	0,092
300,5	0,087
301	0,083
301,5	0,078
301,9	0,073
302,4	0,069
302,8	0,065
303,3	0,061
303,8	0,058
304,2	0,054
304,7	0,05
305,1	0,047
305,6	0,043
306,1	0,04
306,5	0,037
307	0,033
307,4	0,03
307,9	0,027
308,4	0,024
308,8	0,022
309,3	0,019
309,8	0,016
310,2	0,014
310,7	0,013
311,1	0,011
311,6	0,009
312,1	0,007
312,5	0,006
313	0,004
313,4	0,003
313,9	0,002
314,4	0
314,8	-0,001
315,3	-0,002
315,7	-0,003
316,2	-0,004
316,7	-0,005
317,1	-0,006
317,6	-0,006
318	-0,007
318,5	-0,008
319	-0,008
319,4	-0,009
319,9	-0,009
320,3	-0,01
320,8	-0,011
321,3	-0,011
321,7	-0,011
322,2	-0,011
322,6	-0,012
323,1	-0,013
323,6	-0,013
324	-0,013
324,5	-0,014
324,9	-0,014
325,4	-0,015
325,9	-0,014
326,3	-0,015
326,8	-0,015
327,2	-0,015
327,7	-0,015
328,2	-0,016
328,6	-0,015
329,1	-0,016
329,5	-0,016
330	-0,016
330,5	-0,016
330,9	-0,016
331,4	-0,016
331,8	-0,016
332,3	-0,016
332,8	-0,016
333,2	-0,016
333,7	-0,016
334,1	-0,016
334,6	-0,016
335,1	-0,016
335,5	-0,016
336	-0,016
336,4	-0,016
336,9	-0,016
337,4	-0,017
337,8	-0,017
338,3	-0,017
338,7	-0,016
339,2	-0,016
339,7	-0,016
340,1	-0,017
340,6	-0,016
341	-0,016
341,5	-0,017
342	-0,017
342,4	-0,017
342,9	-0,017
343,3	-0,017
343,8	-0,016
344,2	-0,016
344,7	-0,017
345,2	-0,016
345,6	-0,016
346,1	-0,016
346,5	-0,016
347	-0,016
347,5	-0,016
347,9	-0,016
348,4	-0,016
348,8	-0,016
349,3	-0,016
349,8	-0,016
350,2	-0,016
350,7	-0,017
351,1	-0,017
351,6	-0,017
352	-0,017
352,5	-0,018
353	-0,018
353,4	-0,018
353,9	-0,017
354,3	-0,017
354,8	-0,017
355,3	-0,017
355,7	-0,017
356,2	-0,017
356,6	-0,017
357,1	-0,017
357,5	-0,017
358	-0,016
358,5	-0,017
358,9	-0,017
359,4	-0,017
359,8	-0,017
360,3	-0,017
360,8	-0,017
361,2	-0,017
361,7	-0,017
362,1	-0,018
362,6	-0,018
363	-0,017
363,5	-0,018
364	-0,018
364,4	-0,017
364,9	-0,017
365,3	-0,017
365,8	-0,017
366,3	-0,017
366,7	-0,018
367,2	-0,018
367,6	-0,018
368,1	-0,017
368,5	-0,018
369	-0,018
369,5	-0,018
369,9	-0,017
370,4	-0,018
370,8	-0,017
371,3	-0,017
371,7	-0,017
372,2	-0,017
372,7	-0,017
373,1	-0,018
373,6	-0,018
374	-0,018
374,5	-0,018
374,9	-0,018
375,4	-0,018
375,9	-0,018
376,3	-0,018
376,8	-0,018
377,2	-0,018
377,7	-0,018
378,2	-0,018
378,6	-0,018
379,1	-0,018
379,5	-0,018
380	-0,018
380,4	-0,018
380,9	-0,018
381,4	-0,019
381,8	-0,019
382,3	-0,019
382,7	-0,019
383,2	-0,019
383,6	-0,02
384,1	-0,019
384,6	-0,019
385	-0,018
385,5	-0,018
385,9	-0,018
386,4	-0,018
386,8	-0,018
387,3	-0,018
387,7	-0,018
388,2	-0,018
388,7	-0,018
389,1	-0,018
389,6	-0,018
390	-0,018
390,5	-0,017
390,9	-0,018
391,4	-0,018
391,9	-0,018
392,3	-0,019
392,8	-0,019
393,2	-0,019
393,7	-0,019
394,1	-0,019
394,6	-0,019
395,1	-0,019
395,5	-0,018
396	-0,019
396,4	-0,019
396,9	-0,019
397,3	-0,019
397,8	-0,019
398,2	-0,019
398,7	-0,019
399,2	-0,019
399,6	-0,019
400,1	-0,019
400,5	-0,019
401	-0,019
401,4	-0,019
401,9	-0,018
402,4	-0,018
402,8	-0,018
403,3	-0,018
403,7	-0,018
404,2	-0,018
404,6	-0,018
405,1	-0,018
405,5	-0,018
406	-0,018
406,5	-0,018
406,9	-0,018
407,4	-0,019
407,8	-0,018
408,3	-0,019
408,7	-0,019
409,2	-0,019
409,6	-0,019
410,1	-0,019
410,6	-0,018
411	-0,018
411,5	-0,018
411,9	-0,019
412,4	-0,019
412,8	-0,019
413,3	-0,019
413,7	-0,019
414,2	-0,019
414,7	-0,019
415,1	-0,019
415,6	-0,019
416	-0,019
416,5	-0,019
416,9	-0,018
417,4	-0,018
417,8	-0,018
418,3	-0,018
418,8	-0,018
419,2	-0,018
419,7	-0,018
420,1	-0,019
420,6	-0,019
421	-0,019
421,5	-0,019
421,9	-0,019
422,4	-0,019
422,8	-0,019
423,3	-0,019
423,8	-0,019
424,2	-0,019
424,7	-0,019
425,1	-0,018
425,6	-0,018
426	-0,019
426,5	-0,019
426,9	-0,019
427,4	-0,019
427,9	-0,018
428,3	-0,018
428,8	-0,018
429,2	-0,019
429,7	-0,018
430,1	-0,019
430,6	-0,019
431	-0,019
431,5	-0,02
431,9	-0,019
432,4	-0,019
432,8	-0,019
433,3	-0,018
433,8	-0,018
434,2	-0,018
434,7	-0,018
435,1	-0,018
435,6	-0,018
436	-0,018
436,5	-0,018
436,9	-0,018
437,4	-0,018
437,8	-0,018
438,3	-0,018
438,8	-0,018
439,2	-0,019
439,7	-0,019
440,1	-0,02
440,6	-0,02
441	-0,02
441,5	-0,02
441,9	-0,02
442,4	-0,02
442,8	-0,019
443,3	-0,019
443,7	-0,019
444,2	-0,019
444,7	-0,019
445,1	-0,019
445,6	-0,018
446	-0,019
446,5	-0,019
446,9	-0,019
447,4	-0,018
447,8	-0,018
448,3	-0,019
448,7	-0,019
449,2	-0,019
449,6	-0,018
450,1	-0,019
450,6	-0,02
451	-0,02
451,5	-0,019
451,9	-0,02
452,4	-0,019
452,8	-0,02
453,3	-0,019
453,7	-0,019
454,2	-0,019
454,6	-0,02
455,1	-0,019
455,5	-0,019
456	-0,019
456,4	-0,019
456,9	-0,019
457,3	-0,019
457,8	-0,019
458,3	-0,019
458,7	-0,019
459,2	-0,019
459,6	-0,019
460,1	-0,019
460,5	-0,019
461	-0,019
461,4	-0,019
461,9	-0,019
462,3	-0,019
462,8	-0,019
463,2	-0,019
463,7	-0,019
464,1	-0,02
464,6	-0,02
465	-0,02
465,5	-0,02
466	-0,02
466,4	-0,02
466,9	-0,02
467,3	-0,019
467,8	-0,02
468,2	-0,02
468,7	-0,02
469,1	-0,02
469,6	-0,02
470	-0,02
470,5	-0,02
470,9	-0,019
471,4	-0,019
471,8	-0,019
472,3	-0,019
472,7	-0,019
473,2	-0,019
473,6	-0,019
474,1	-0,019
474,5	-0,02
475	-0,019
475,4	-0,019
475,9	-0,02
476,4	-0,02
476,8	-0,019
477,3	-0,019
477,7	-0,019
478,2	-0,019
478,6	-0,019
479,1	-0,019
479,5	-0,019
480	-0,019
480,4	-0,019
480,9	-0,019
481,3	-0,02
481,8	-0,019
482,2	-0,019
482,7	-0,019
483,1	-0,019
483,6	-0,019
484	-0,018
484,5	-0,019
484,9	-0,021
485,4	-0,021
485,8	-0,021
486,3	-0,021
486,7	-0,021
487,2	-0,022
487,6	-0,021
488,1	-0,018
488,5	-0,018
489	-0,018
489,4	-0,018
489,9	-0,018
490,4	-0,018
490,8	-0,018
491,3	-0,019
491,7	-0,019
492,2	-0,019
492,6	-0,019
493,1	-0,02
493,5	-0,02
494	-0,019
494,4	-0,019
494,9	-0,019
495,3	-0,019
495,8	-0,019
496,2	-0,019
496,7	-0,019
497,1	-0,019
497,6	-0,02
498	-0,02
498,5	-0,019
498,9	-0,019
499,4	-0,019
499,8	-0,019
500,3	-0,019
500,7	-0,019
501,2	-0,019
501,6	-0,019
502,1	-0,019
502,5	-0,019
503	-0,02
503,4	-0,02
503,9	-0,02
504,3	-0,02
504,8	-0,02
505,2	-0,02
505,7	-0,021
506,1	-0,02
506,6	-0,02
507	-0,019
507,5	-0,02
507,9	-0,02
508,4	-0,019
508,8	-0,019
509,3	-0,02
509,7	-0,02
510,2	-0,02
510,6	-0,02
511,1	-0,02
511,5	-0,021
512	-0,02
512,4	-0,02
512,9	-0,02
513,3	-0,021
513,8	-0,021
514,2	-0,021
514,7	-0,021
515,1	-0,02
515,6	-0,02
516	-0,019
516,5	-0,02
516,9	-0,019
517,4	-0,019
517,8	-0,019
518,3	-0,02
518,7	-0,02
519,2	-0,02
519,6	-0,019
520,1	-0,02
520,5	-0,02
521	-0,019
521,4	-0,019
521,9	-0,02
522,3	-0,02
522,8	-0,021
523,2	-0,021
523,7	-0,02
524,1	-0,021
524,6	-0,021
525	-0,02
525,5	-0,02
525,9	-0,02
526,4	-0,02
526,8	-0,02
527,3	-0,019
527,7	-0,02
528,2	-0,02
528,6	-0,02
529,1	-0,02
529,5	-0,02
530	-0,02
530,4	-0,021
530,9	-0,021
531,3	-0,021
531,8	-0,021
532,2	-0,021
532,6	-0,021
533,1	-0,021
533,5	-0,021
534	-0,02
534,4	-0,02
534,9	-0,021
535,3	-0,021
535,8	-0,02
536,2	-0,021
536,7	-0,02
537,1	-0,02
537,6	-0,02
538	-0,02
538,5	-0,02
538,9	-0,02
539,4	-0,02
539,8	-0,02
540,3	-0,02
540,7	-0,021
541,2	-0,021
541,6	-0,021
542,1	-0,021
542,5	-0,021
543	-0,02
543,4	-0,02
543,9	-0,02
544,3	-0,02
544,8	-0,019
545,2	-0,019
545,7	-0,019
546,1	-0,02
546,5	-0,02
547	-0,02
547,4	-0,02
547,9	-0,02
548,3	-0,02
548,8	-0,021
549,2	-0,021
549,7	-0,021
550,1	-0,02
550,6	-0,02
551	-0,02
551,5	-0,02
551,9	-0,02
552,4	-0,02
552,8	-0,02
553,3	-0,02
553,7	-0,02
554,2	-0,021
554,6	-0,02
555,1	-0,02
555,5	-0,02
555,9	-0,02
556,4	-0,02
556,8	-0,02
557,3	-0,019
557,7	-0,019
558,2	-0,019
558,6	-0,02
559,1	-0,02
559,5	-0,02
560	-0,02
560,4	-0,02
560,9	-0,02
561,3	-0,02
561,8	-0,02
562,2	-0,02
562,7	-0,02
563,1	-0,02
563,6	-0,02
564	-0,02
564,4	-0,02
564,9	-0,02
565,3	-0,02
565,8	-0,02
566,2	-0,019
566,7	-0,019
567,1	-0,02
567,6	-0,02
568	-0,02
568,5	-0,021
568,9	-0,021
569,4	-0,021
569,8	-0,02
570,3	-0,02
570,7	-0,02
571,1	-0,02
571,6	-0,019
572	-0,019
572,5	-0,019
572,9	-0,02
573,4	-0,02
573,8	-0,02
574,3	-0,02
574,7	-0,02
575,2	-0,02
575,6	-0,02
576,1	-0,02
576,5	-0,021
576,9	-0,02
577,4	-0,02
577,8	-0,02
578,3	-0,02
578,7	-0,02
579,2	-0,02
579,6	-0,019
580,1	-0,02
580,5	-0,02
581	-0,02
581,4	-0,02
581,9	-0,02
582,3	-0,02
582,7	-0,02
583,2	-0,019
583,6	-0,019
584,1	-0,019
584,5	-0,019
585	-0,019
585,4	-0,02
585,9	-0,02
586,3	-0,02
586,8	-0,02
587,2	-0,02
587,6	-0,019
588,1	-0,019
588,5	-0,02
589	-0,02
589,4	-0,019
589,9	-0,019
590,3	-0,019
590,8	-0,019
591,2	-0,019
591,7	-0,019
592,1	-0,019
592,5	-0,019
593	-0,019
593,4	-0,019
593,9	-0,02
594,3	-0,02
594,8	-0,02
595,2	-0,02
595,7	-0,02
596,1	-0,02
596,6	-0,02
597	-0,02
597,4	-0,02
597,9	-0,02
598,3	-0,02
598,8	-0,02
599,2	-0,02
599,7	-0,02
600,1	-0,02
600,6	-0,019
601	-0,019
601,4	-0,019
601,9	-0,019
602,3	-0,019
602,8	-0,019
603,2	-0,019
603,7	-0,019
604,1	-0,019
604,6	-0,019
605	-0,02
605,4	-0,02
605,9	-0,02
606,3	-0,02
606,8	-0,02
607,2	-0,02
607,7	-0,02
608,1	-0,02
608,6	-0,02
609	-0,02
609,4	-0,02
609,9	-0,02
610,3	-0,02
610,8	-0,02
611,2	-0,02
611,7	-0,02
612,1	-0,02
612,6	-0,02
613	-0,021
613,4	-0,021
613,9	-0,021
614,3	-0,021
614,8	-0,021
615,2	-0,021
615,7	-0,02
616,1	-0,02
616,6	-0,02
617	-0,02
617,4	-0,02
617,9	-0,02
618,3	-0,02
618,8	-0,02
619,2	-0,02
619,7	-0,02
620,1	-0,02
620,5	-0,02
621	-0,02
621,4	-0,02
621,9	-0,02
622,3	-0,02
622,8	-0,021
623,2	-0,021
623,6	-0,021
624,1	-0,021
624,5	-0,021
625	-0,021
625,4	-0,02
625,9	-0,02
626,3	-0,02
626,8	-0,02
627,2	-0,019
627,6	-0,019
628,1	-0,019
628,5	-0,019
629	-0,019
629,4	-0,019
629,9	-0,019
630,3	-0,02
630,7	-0,02
631,2	-0,019
631,6	-0,02
632,1	-0,02
632,5	-0,02
633	-0,02
633,4	-0,02
633,8	-0,02
634,3	-0,02
634,7	-0,02
635,2	-0,02
635,6	-0,021
636,1	-0,021
636,5	-0,021
636,9	-0,02
637,4	-0,02
637,8	-0,02
638,3	-0,02
638,7	-0,02
639,2	-0,02
639,6	-0,02
640	-0,02
640,5	-0,02
640,9	-0,02
641,4	-0,021
641,8	-0,021
642,2	-0,021
642,7	-0,022
643,1	-0,022
643,6	-0,022
644	-0,021
644,5	-0,021
644,9	-0,02
645,3	-0,02
645,8	-0,019
646,2	-0,019
646,7	-0,019
647,1	-0,019
647,6	-0,02
648	-0,02
648,4	-0,02
648,9	-0,02
649,3	-0,021
649,8	-0,021
650,2	-0,021
650,6	-0,021
651,1	-0,021
651,5	-0,021
652	-0,021
652,4	-0,02
652,9	-0,02
653,3	-0,016
653,7	-0,011
654,2	-0,007
654,6	-0,004
655,1	-0,003
655,5	-0,004
655,9	-0,004
656,4	-0,004
656,8	-0,004
657,3	-0,006
657,7	-0,01
658,2	-0,015
658,6	-0,016
659	-0,017
659,5	-0,018
659,9	-0,019
660,4	-0,019
660,8	-0,019
661,2	-0,019
661,7	-0,02
662,1	-0,02
662,6	-0,02
663	-0,02
663,4	-0,02
663,9	-0,02
664,3	-0,02
664,8	-0,02
665,2	-0,02
665,6	-0,02
666,1	-0,02
666,5	-0,019
667	-0,02
667,4	-0,019
667,9	-0,019
668,3	-0,02
668,7	-0,019
669,2	-0,019
669,6	-0,02
670,1	-0,02
670,5	-0,02
670,9	-0,02
671,4	-0,02
671,8	-0,02
672,3	-0,02
672,7	-0,02
673,1	-0,02
673,6	-0,02
674	-0,02
674,5	-0,02
674,9	-0,02
675,3	-0,019
675,8	-0,019
676,2	-0,019
676,7	-0,019
677,1	-0,02
677,5	-0,02
678	-0,02
678,4	-0,02
678,9	-0,02
679,3	-0,021
679,7	-0,02
680,2	-0,02
680,6	-0,02
681,1	-0,02
681,5	-0,02
681,9	-0,02
682,4	-0,02
682,8	-0,021
683,3	-0,021
683,7	-0,021
684,1	-0,021
684,6	-0,021
685	-0,021
685,5	-0,021
685,9	-0,021
686,3	-0,021
686,8	-0,021
687,2	-0,021
687,7	-0,02
688,1	-0,021
688,5	-0,021
689	-0,021
689,4	-0,021
689,9	-0,021
690,3	-0,021
690,7	-0,021
691,2	-0,021
691,6	-0,02
692	-0,021
692,5	-0,021
692,9	-0,02
693,4	-0,02
693,8	-0,02
694,2	-0,02
694,7	-0,02
695,1	-0,02
695,6	-0,02
696	-0,02
696,4	-0,02
696,9	-0,02
697,3	-0,02
697,8	-0,02
698,2	-0,02
698,6	-0,02
699,1	-0,02
699,5	-0,02
699,9	-0,02
700,4	-0,02
700,8	-0,02
701,3	-0,02
701,7	-0,02
702,1	-0,02
702,6	-0,02
703	-0,02
703,5	-0,02
703,9	-0,02
704,3	-0,02
704,8	-0,021
705,2	-0,021
705,6	-0,021
706,1	-0,021
706,5	-0,021
707	-0,021
707,4	-0,021
707,8	-0,021
708,3	-0,022
708,7	-0,022
709,2	-0,021
709,6	-0,021
710	-0,021
710,5	-0,02
710,9	-0,02
711,3	-0,02
711,8	-0,02
712,2	-0,02
712,7	-0,02
713,1	-0,021
713,5	-0,021
714	-0,021
714,4	-0,021
714,8	-0,021
715,3	-0,021
715,7	-0,02
716,2	-0,02
716,6	-0,02
717	-0,02
717,5	-0,019
717,9	-0,019
718,3	-0,019
718,8	-0,02
719,2	-0,02
719,7	-0,021
720,1	-0,021
720,5	-0,021
721	-0,021
721,4	-0,021
721,8	-0,021
722,3	-0,021
722,7	-0,02
723,2	-0,02
723,6	-0,02
724	-0,02
724,5	-0,02
724,9	-0,02
725,3	-0,02
725,8	-0,019
726,2	-0,019
726,7	-0,02
727,1	-0,02
727,5	-0,02
728	-0,02
728,4	-0,02
728,8	-0,021
729,3	-0,021
729,7	-0,021
730,1	-0,021
730,6	-0,021
731	-0,021
731,5	-0,021
731,9	-0,021
732,3	-0,021
732,8	-0,02
733,2	-0,02
733,6	-0,02
734,1	-0,02
734,5	-0,02
734,9	-0,02
735,4	-0,02
735,8	-0,02
736,3	-0,019
736,7	-0,019
737,1	-0,019
737,6	-0,018
738	-0,018
738,4	-0,019
738,9	-0,019
739,3	-0,019
739,7	-0,019
740,2	-0,019
740,6	-0,019
741,1	-0,019
741,5	-0,019
741,9	-0,019
742,4	-0,019
742,8	-0,019
743,2	-0,02
743,7	-0,02
744,1	-0,02
744,5	-0,02
745	-0,02
745,4	-0,02
745,8	-0,02
746,3	-0,02
746,7	-0,019
747,2	-0,019
747,6	-0,019
748	-0,019
748,5	-0,019
748,9	-0,02
749,3	-0,02
749,8	-0,02
750,2	-0,02
750,6	-0,02
751,1	-0,02
751,5	-0,02
751,9	-0,02
752,4	-0,02
752,8	-0,02
753,3	-0,021
753,7	-0,021
754,1	-0,02
754,6	-0,02
755	-0,021
755,4	-0,021
755,9	-0,02
756,3	-0,021
756,7	-0,021
757,2	-0,021
757,6	-0,021
758	-0,02
758,5	-0,02
758,9	-0,02
759,3	-0,02
759,8	-0,02
760,2	-0,02
760,6	-0,02
761,1	-0,02
761,5	-0,02
761,9	-0,02
762,4	-0,02
762,8	-0,02
763,3	-0,02
763,7	-0,02
764,1	-0,02
764,6	-0,02
765	-0,02
765,4	-0,019
765,9	-0,019
766,3	-0,019
766,7	-0,018
767,2	-0,019
767,6	-0,019
768	-0,019
768,5	-0,019
768,9	-0,02
769,3	-0,02
769,8	-0,02
770,2	-0,02
770,6	-0,019
771,1	-0,019
771,5	-0,019
771,9	-0,019
772,4	-0,019
772,8	-0,019
773,2	-0,019
773,7	-0,019
774,1	-0,019
774,5	-0,019
775	-0,019
775,4	-0,019
775,8	-0,019
776,3	-0,019
776,7	-0,02
777,1	-0,02
777,6	-0,02
778	-0,02
778,4	-0,02
778,9	-0,02
779,3	-0,02
779,7	-0,02
780,2	-0,02
780,6	-0,02
781	-0,02
781,5	-0,02
781,9	-0,019
782,3	-0,02
782,8	-0,02
783,2	-0,02
783,6	-0,02
784,1	-0,02
784,5	-0,02
784,9	-0,02
785,4	-0,02
785,8	-0,02
786,2	-0,02
786,7	-0,021
787,1	-0,021
787,5	-0,021
788	-0,021
788,4	-0,021
788,8	-0,02
789,3	-0,02
789,7	-0,02
790,1	-0,02
790,6	-0,02
791	-0,02
791,4	-0,02
791,9	-0,02
792,3	-0,02
792,7	-0,02
793,2	-0,02
793,6	-0,02
794	-0,02
794,5	-0,02
794,9	-0,02
795,3	-0,02
795,8	-0,02
796,2	-0,02
796,6	-0,02
797,1	-0,02
797,5	-0,02
797,9	-0,02
798,4	-0,02
798,8	-0,02
799,2	-0,02
799,7	-0,02
800,1	-0,02
800,5	-0,02
801	-0,02
801,4	-0,02
801,8	-0,02
802,2	-0,02
802,7	-0,02
803,1	-0,019
803,5	-0,019
804	-0,019
804,4	-0,019
804,8	-0,019
805,3	-0,019
805,7	-0,019
806,1	-0,02
806,6	-0,02
807	-0,02
807,4	-0,02
807,9	-0,02
808,3	-0,02
808,7	-0,02
809,2	-0,02
809,6	-0,021
810	-0,02
810,4	-0,02
810,9	-0,02
811,3	-0,02
811,7	-0,02
812,2	-0,019
812,6	-0,019
813	-0,019
813,5	-0,019
813,9	-0,019
814,3	-0,019
814,8	-0,019
815,2	-0,019
815,6	-0,019
816,1	-0,019
816,5	-0,019
816,9	-0,02
817,3	-0,02
817,8	-0,02
818,2	-0,02
818,6	-0,02
819,1	-0,02
819,5	-0,02
819,9	-0,02
820,4	-0,02
820,8	-0,02
821,2	-0,02
821,7	-0,02
822,1	-0,02
822,5	-0,02
822,9	-0,02
823,4	-0,02
823,8	-0,02
824,2	-0,02
824,7	-0,02
825,1	-0,02
825,5	-0,02
826	-0,02
826,4	-0,02
826,8	-0,02
827,3	-0,02
827,7	-0,02
828,1	-0,019
828,5	-0,019
829	-0,019
829,4	-0,019
829,8	-0,019
830,3	-0,019
830,7	-0,019
831,1	-0,02
831,6	-0,02
832	-0,02
832,4	-0,02
832,8	-0,02
833,3	-0,021
833,7	-0,021
834,1	-0,021
834,6	-0,021
835	-0,021
835,4	-0,021
835,8	-0,021
836,3	-0,021
836,7	-0,021
837,1	-0,02
837,6	-0,02
838	-0,02
838,4	-0,02
838,9	-0,02
839,3	-0,02
839,7	-0,02
840,1	-0,02
840,6	-0,02
841	-0,02
841,4	-0,02
841,9	-0,021
842,3	-0,021
842,7	-0,021
843,1	-0,021
843,6	-0,02
844	-0,02
844,4	-0,019
844,9	-0,019
845,3	-0,019
845,7	-0,019
846,2	-0,019
846,6	-0,019
847	-0,019
847,4	-0,02
847,9	-0,02
848,3	-0,019
848,7	-0,02
849,2	-0,02
849,6	-0,02
850	-0,02
850,4	-0,02
850,9	-0,02
851,3	-0,02
851,7	-0,02
852,2	-0,02
852,6	-0,02
853	-0,02
853,4	-0,02
853,9	-0,02
854,3	-0,02
854,7	-0,02
855,2	-0,02
855,6	-0,02
856	-0,02
856,4	-0,02
856,9	-0,02
857,3	-0,02
857,7	-0,02
858,2	-0,02
858,6	-0,02
859	-0,02
859,4	-0,02
859,9	-0,02
860,3	-0,02
860,7	-0,02
861,1	-0,02
861,6	-0,02
862	-0,02
862,4	-0,02
862,9	-0,02
863,3	-0,02
863,7	-0,02
864,1	-0,02
864,6	-0,02
865	-0,02
865,4	-0,02
865,9	-0,02
866,3	-0,02
866,7	-0,02
867,1	-0,02
867,6	-0,02
868	-0,02
868,4	-0,019
868,8	-0,019
869,3	-0,019
869,7	-0,019
870,1	-0,019
870,6	-0,019
871	-0,019
871,4	-0,019
871,8	-0,02
872,3	-0,02
872,7	-0,02
873,1	-0,02
873,5	-0,02
874	-0,021
874,4	-0,021
874,8	-0,02
875,3	-0,02
875,7	-0,021
876,1	-0,021
876,5	-0,021
877	-0,02
877,4	-0,02
877,8	-0,02
878,2	-0,019
878,7	-0,019
879,1	-0,019
879,5	-0,019
879,9	-0,019
880,4	-0,019
880,8	-0,02
881,2	-0,02
881,7	-0,02
882,1	-0,019
882,5	-0,019
882,9	-0,019
883,4	-0,019
883,8	-0,019
884,2	-0,019
884,6	-0,019
885,1	-0,019
885,5	-0,02
885,9	-0,02
886,3	-0,02
886,8	-0,02
887,2	-0,02
887,6	-0,02
888	-0,02
888,5	-0,019
888,9	-0,019
889,3	-0,019
889,8	-0,019
890,2	-0,019
890,6	-0,019
891	-0,019
891,5	-0,02
891,9	-0,02
892,3	-0,02
892,7	-0,02
893,2	-0,02
893,6	-0,02
894	-0,02
894,4	-0,02
894,9	-0,02
895,3	-0,02
895,7	-0,02
896,1	-0,02
896,6	-0,021
897	-0,021
897,4	-0,02
897,8	-0,02
898,3	-0,02
898,7	-0,02
899,1	-0,02
899,5	-0,02
900	-0,02
900,4	-0,02
900,8	-0,02
901,2	-0,02
901,7	-0,02
902,1	-0,02
902,5	-0,02
902,9	-0,02
903,4	-0,02
903,8	-0,02
904,2	-0,02
904,6	-0,019
905,1	-0,019
905,5	-0,02
905,9	-0,02
906,3	-0,02
906,8	-0,02
907,2	-0,02
907,6	-0,021
908	-0,02
908,5	-0,02
908,9	-0,02
909,3	-0,02
909,7	-0,02
910,2	-0,02
910,6	-0,02
911	-0,021
911,4	-0,02
911,9	-0,02
912,3	-0,021
912,7	-0,021
913,1	-0,02
913,6	-0,021
914	-0,021
914,4	-0,021
914,8	-0,021
915,3	-0,021
915,7	-0,021
916,1	-0,021
916,5	-0,021
916,9	-0,021
917,4	-0,021
917,8	-0,021
918,2	-0,021
918,6	-0,021
919,1	-0,02
919,5	-0,02
919,9	-0,02
920,3	-0,02
920,8	-0,02
921,2	-0,02
921,6	-0,021
922	-0,02
922,5	-0,021
922,9	-0,021
923,3	-0,021
923,7	-0,02
924,2	-0,02
924,6	-0,02
925	-0,019
925,4	-0,02
925,8	-0,02
926,3	-0,02
926,7	-0,02
927,1	-0,02
927,5	-0,02
928	-0,02
928,4	-0,019
928,8	-0,019
929,2	-0,019
929,7	-0,018
930,1	-0,019
930,5	-0,018
930,9	-0,018
931,3	-0,019
931,8	-0,019
932,2	-0,019
932,6	-0,02
933	-0,02
933,5	-0,02
933,9	-0,02
934,3	-0,019
934,7	-0,019
935,2	-0,019
935,6	-0,019
936	-0,019
936,4	-0,019
936,8	-0,019
937,3	-0,02
937,7	-0,02
938,1	-0,019
938,5	-0,019
939	-0,02
939,4	-0,02
939,8	-0,019
940,2	-0,02
940,6	-0,02
941,1	-0,02
941,5	-0,02
941,9	-0,02
942,3	-0,021
942,8	-0,021
943,2	-0,021
943,6	-0,021
944	-0,021
944,4	-0,021
944,9	-0,021
945,3	-0,021
945,7	-0,021
946,1	-0,021
946,6	-0,021
947	-0,021
947,4	-0,021
947,8	-0,021
948,2	-0,021
948,7	-0,021
949,1	-0,022
949,5	-0,021
949,9	-0,021
950,3	-0,021
950,8	-0,021
951,2	-0,02
951,6	-0,02
952	-0,02
952,5	-0,02
952,9	-0,02
953,3	-0,02
953,7	-0,02
954,1	-0,02
954,6	-0,02
955	-0,019
955,4	-0,019
955,8	-0,02
956,2	-0,02
956,7	-0,02
957,1	-0,02
957,5	-0,021
957,9	-0,021
958,3	-0,021
958,8	-0,021
959,2	-0,021
959,6	-0,021
960	-0,02
960,5	-0,02
960,9	-0,02
961,3	-0,02
961,7	-0,02
962,1	-0,019
962,6	-0,019
963	-0,019
963,4	-0,019
963,8	-0,02
964,2	-0,019
964,7	-0,019
965,1	-0,019
965,5	-0,019
965,9	-0,019
966,3	-0,019
966,8	-0,019
967,2	-0,018
967,6	-0,019
968	-0,019
968,4	-0,02
968,9	-0,019
969,3	-0,02
969,7	-0,02
970,1	-0,02
970,5	-0,02
971	-0,019
971,4	-0,019
971,8	-0,02
972,2	-0,02
972,6	-0,019
973,1	-0,019
973,5	-0,019
973,9	-0,019
974,3	-0,019
974,7	-0,019
975,2	-0,019
975,6	-0,019
976	-0,02
976,4	-0,02
976,8	-0,02
977,3	-0,02
977,7	-0,02
978,1	-0,02
978,5	-0,019
978,9	-0,019
979,4	-0,02
979,8	-0,019
980,2	-0,019
980,6	-0,019
981	-0,019
981,5	-0,019
981,9	-0,019
982,3	-0,018
982,7	-0,019
983,1	-0,019
983,6	-0,019
984	-0,019
984,4	-0,019
984,8	-0,019
985,2	-0,019
985,6	-0,019
986,1	-0,019
986,5	-0,019
986,9	-0,019
987,3	-0,019
987,7	-0,019
988,2	-0,019
988,6	-0,018
989	-0,018
989,4	-0,019
989,8	-0,019
990,3	-0,019
990,7	-0,019
991,1	-0,019
991,5	-0,02
991,9	-0,02
992,3	-0,02
992,8	-0,02
993,2	-0,02
993,6	-0,02
994	-0,02
994,4	-0,02
994,9	-0,02
995,3	-0,019
995,7	-0,02
996,1	-0,019
996,5	-0,019
996,9	-0,018
997,4	-0,019
997,8	-0,018
998,2	-0,019
998,6	-0,019
999	-0,019
999,5	-0,019
999,9	-0,02
1000,3	-0,02
1000,7	-0,02
1001,1	-0,02
1001,5	-0,02
1002	-0,02
1002,4	-0,02
1002,8	-0,02
1003,2	-0,02
1003,6	-0,02
1004	-0,02
1004,5	-0,02
1004,9	-0,02
1005,3	-0,02
1005,7	-0,019
1006,1	-0,019
1006,6	-0,019
1007	-0,019
1007,4	-0,019
1007,8	-0,019
1008,2	-0,019
1008,6	-0,019
1009,1	-0,019
1009,5	-0,019
1009,9	-0,019
1010,3	-0,018
1010,7	-0,019
1011,1	-0,019
1011,6	-0,018
1012	-0,018
1012,4	-0,018
1012,8	-0,019
1013,2	-0,018
1013,6	-0,018
1014,1	-0,018
1014,5	-0,019
1014,9	-0,019
1015,3	-0,019
1015,7	-0,018
1016,1	-0,019
1016,6	-0,019
1017	-0,019
1017,4	-0,019
1017,8	-0,018
1018,2	-0,018
1018,6	-0,019
1019,1	-0,017
1019,5	-0,018
1019,9	-0,018
1020,3	-0,018
1020,7	-0,018
1021,1	-0,018
1021,6	-0,018
1022	-0,018
1022,4	-0,018
1022,8	-0,018
1023,2	-0,018
1023,6	-0,018
1024,1	-0,018
1024,5	-0,018
1024,9	-0,017
1025,3	-0,017
1025,7	-0,017
1026,1	-0,018
1026,6	-0,018
1027	-0,018
1027,4	-0,019
1027,8	-0,02
1028,2	-0,02
1028,6	-0,019
1029	-0,019
1029,5	-0,019
1029,9	-0,019
1030,3	-0,019
1030,7	-0,018
1031,1	-0,018
1031,5	-0,018
1032	-0,019
1032,4	-0,018
1032,8	-0,018
1033,2	-0,018
1033,6	-0,018
1034	-0,018
1034,4	-0,019
1034,9	-0,018
1035,3	-0,018
1035,7	-0,019
1036,1	-0,019
1036,5	-0,02
1036,9	-0,019
1037,4	-0,02
1037,8	-0,02
1038,2	-0,02
1038,6	-0,02
1039	-0,02
1039,4	-0,019
1039,8	-0,019
1040,3	-0,019
1040,7	-0,019
1041,1	-0,018
1041,5	-0,017
1041,9	-0,017
1042,3	-0,018
1042,7	-0,018
1043,2	-0,018
1043,6	-0,018
1044	-0,019
1044,4	-0,019
1044,8	-0,019
1045,2	-0,018
1045,6	-0,018
1046,1	-0,018
1046,5	-0,018
1046,9	-0,017
1047,3	-0,019
1047,7	-0,018
1048,1	-0,018
1048,5	-0,018
1049	-0,018
1049,4	-0,019
1049,8	-0,019
1050,2	-0,018
1050,6	-0,018
1051	-0,017
1051,4	-0,017
1051,9	-0,017
1052,3	-0,017
1052,7	-0,017
1053,1	-0,017
1053,5	-0,017
1053,9	-0,017
1054,3	-0,017
1054,8	-0,017
1055,2	-0,016
1055,6	-0,017
1056	-0,016
1056,4	-0,016
1056,8	-0,017
1057,2	-0,017
1057,6	-0,017
1058,1	-0,017
1058,5	-0,016
1058,9	-0,016
1059,3	-0,017
1059,7	-0,017
1060,1	-0,017
1060,5	-0,016
1061	-0,016
1061,4	-0,016
1061,8	-0,017
1062,2	-0,017
1062,6	-0,017
1063	-0,017
1063,4	-0,017
1063,8	-0,018
1064,3	-0,018
1064,7	-0,018
1065,1	-0,018
1065,5	-0,017
1065,9	-0,017
1066,3	-0,018
1066,7	-0,018
1067,1	-0,018
1067,6	-0,017
1068	-0,017
1068,4	-0,017
1068,8	-0,017
1069,2	-0,016
1069,6	-0,015
1070	-0,015
1070,4	-0,017
1070,9	-0,018
1071,3	-0,018
1071,7	-0,018
1072,1	-0,018
1072,5	-0,018
1072,9	-0,018
1073,3	-0,018
1073,7	-0,016
1074,2	-0,017
1074,6	-0,016
1075	-0,016
1075,4	-0,016
1075,8	-0,015
1076,2	-0,016
1076,6	-0,016
1077	-0,015
1077,5	-0,015
1077,9	-0,016
1078,3	-0,017
1078,7	-0,017
1079,1	-0,016
1079,5	-0,016
1079,9	-0,017
1080,3	-0,018
1080,7	-0,017
1081,2	-0,018
1081,6	-0,017
1082	-0,019
1082,4	-0,018
1082,8	-0,017
1083,2	-0,015
1083,6	-0,015
1084	-0,016
1084,5	-0,016
1084,9	-0,016
1085,3	-0,015
1085,7	-0,016
1086,1	-0,017
1086,5	-0,017
1086,9	-0,015
1087,3	-0,015
1087,7	-0,014
1088,2	-0,015
1088,6	-0,014
1089	-0,014
1089,4	-0,015
1089,8	-0,015
1090,2	-0,014
1090,6	-0,014
1091	-0,013
1091,4	-0,016
1091,9	-0,016
1092,3	-0,014
1092,7	-0,013
1093,1	-0,015
1093,5	-0,017
1093,9	-0,015
1094,3	-0,017
1094,7	-0,011
1095,1	-0,011
1095,5	-0,013
1096	-0,007
1096,4	-0,007
1096,8	-0,007
1097,2	-0,005
1097,6	-0,012
1098	-0,017
1098,4	-0,016
1098,8	-0,016
1099,2	-0,014
1099,6	-0,018
1100,1	-0,016
1100,5	-0,011
1100,9	-0,004
1101,3	-0,007
1101,7	-0,005
1102,1	-0,014
1102,5	-0,008
1102,9	-0,006
1103,3	-0,004
1103,7	-0,006
1104,2	-0,009
1104,6	-0,008
1105	0,002
1105,4	0,006
1105,8	0,005
1106,2	0,002
1106,6	0,005
1107	0,021
1107,4	-0,003
1107,8	0,006
1108,3	-0
