Data from Absorbance_151.txt Node
Date: Fri Nov 13 19:48:09 MSK 2020
User: vat
Spectrometer: MAYP114033
Trigger mode: 0
Integration Time (sec): 8,000000E-3
Scans to average: 10
Electric dark correction enabled: true
Nonlinearity correction enabled: false
Boxcar width: 3
XAxis mode: Wavelengths
Number of Pixels in Spectrum: 2068
>>>>>Begin Spectral Data<<<<<
199,4	-0
199,9	0,219
200,4	0,02
200,8	0,022
201,3	0,03
201,8	0,038
202,2	0,046
202,7	0,053
203,2	0,034
203,6	0,059
204,1	0,07
204,6	0,065
205	0,065
205,5	0,074
206	0,068
206,4	0,084
206,9	0,09
207,4	0,075
207,8	0,08
208,3	0,079
208,8	0,062
209,2	0,062
209,7	0,047
210,2	0,039
210,6	0,043
211,1	0,039
211,5	0,036
212	0,034
212,5	0,033
212,9	0,052
213,4	0,031
213,9	0,036
214,3	0,051
214,8	0,045
215,3	0,054
215,7	0,061
216,2	0,048
216,7	0,065
217,1	0,054
217,6	0,044
218,1	0,053
218,5	0,045
219	0,039
219,5	0,046
219,9	0,051
220,4	0,072
220,9	0,079
221,3	0,059
221,8	0,073
222,3	0,088
222,7	0,089
223,2	0,095
223,6	0,097
224,1	0,095
224,6	0,12
225	0,128
225,5	0,109
226	0,11
226,4	0,102
226,9	0,101
227,4	0,101
227,8	0,088
228,3	0,073
228,8	0,1
229,2	0,102
229,7	0,109
230,2	0,092
230,6	0,087
231,1	0,106
231,5	0,117
232	0,111
232,5	0,107
232,9	0,113
233,4	0,125
233,9	0,124
234,3	0,108
234,8	0,106
235,3	0,083
235,7	0,087
236,2	0,088
236,7	0,097
237,1	0,106
237,6	0,121
238,1	0,107
238,5	0,126
239	0,135
239,4	0,142
239,9	0,139
240,4	0,151
240,8	0,149
241,3	0,171
241,8	0,171
242,2	0,17
242,7	0,167
243,2	0,178
243,6	0,176
244,1	0,175
244,6	0,176
245	0,184
245,5	0,195
245,9	0,206
246,4	0,211
246,9	0,218
247,3	0,233
247,8	0,236
248,3	0,251
248,7	0,256
249,2	0,258
249,7	0,253
250,1	0,254
250,6	0,254
251	0,26
251,5	0,258
252	0,263
252,4	0,269
252,9	0,277
253,4	0,282
253,8	0,284
254,3	0,289
254,8	0,295
255,2	0,3
255,7	0,306
256,1	0,311
256,6	0,318
257,1	0,325
257,5	0,333
258	0,342
258,5	0,351
258,9	0,36
259,4	0,37
259,9	0,379
260,3	0,389
260,8	0,399
261,2	0,41
261,7	0,421
262,2	0,432
262,6	0,443
263,1	0,454
263,6	0,466
264	0,478
264,5	0,491
264,9	0,502
265,4	0,514
265,9	0,525
266,3	0,538
266,8	0,55
267,3	0,561
267,7	0,573
268,2	0,587
268,7	0,598
269,1	0,611
269,6	0,624
270	0,637
270,5	0,65
271	0,662
271,4	0,672
271,9	0,685
272,4	0,697
272,8	0,708
273,3	0,719
273,7	0,729
274,2	0,74
274,7	0,75
275,1	0,76
275,6	0,769
276,1	0,777
276,5	0,787
277	0,796
277,4	0,804
277,9	0,812
278,4	0,818
278,8	0,825
279,3	0,83
279,8	0,834
280,2	0,839
280,7	0,843
281,1	0,846
281,6	0,848
282,1	0,85
282,5	0,852
283	0,852
283,4	0,851
283,9	0,849
284,4	0,847
284,8	0,844
285,3	0,839
285,8	0,834
286,2	0,829
286,7	0,822
287,1	0,815
287,6	0,806
288,1	0,798
288,5	0,791
289	0,781
289,5	0,771
289,9	0,76
290,4	0,75
290,8	0,738
291,3	0,726
291,8	0,712
292,2	0,699
292,7	0,684
293,1	0,67
293,6	0,653
294,1	0,638
294,5	0,622
295	0,605
295,5	0,588
295,9	0,571
296,4	0,554
296,8	0,537
297,3	0,519
297,8	0,502
298,2	0,485
298,7	0,467
299,1	0,45
299,6	0,433
300,1	0,417
300,5	0,401
301	0,384
301,5	0,369
301,9	0,353
302,4	0,338
302,8	0,324
303,3	0,309
303,8	0,295
304,2	0,282
304,7	0,269
305,1	0,257
305,6	0,245
306,1	0,234
306,5	0,224
307	0,213
307,4	0,203
307,9	0,193
308,4	0,184
308,8	0,175
309,3	0,167
309,8	0,159
310,2	0,152
310,7	0,145
311,1	0,138
311,6	0,132
312,1	0,127
312,5	0,121
313	0,116
313,4	0,111
313,9	0,107
314,4	0,102
314,8	0,098
315,3	0,093
315,7	0,09
316,2	0,086
316,7	0,083
317,1	0,08
317,6	0,077
318	0,074
318,5	0,072
319	0,07
319,4	0,068
319,9	0,066
320,3	0,064
320,8	0,062
321,3	0,06
321,7	0,059
322,2	0,058
322,6	0,057
323,1	0,055
323,6	0,055
324	0,054
324,5	0,053
324,9	0,052
325,4	0,051
325,9	0,05
326,3	0,05
326,8	0,049
327,2	0,048
327,7	0,047
328,2	0,047
328,6	0,047
329,1	0,046
329,5	0,045
330	0,045
330,5	0,044
330,9	0,044
331,4	0,044
331,8	0,043
332,3	0,043
332,8	0,042
333,2	0,041
333,7	0,041
334,1	0,04
334,6	0,039
335,1	0,039
335,5	0,039
336	0,039
336,4	0,039
336,9	0,039
337,4	0,038
337,8	0,039
338,3	0,038
338,7	0,038
339,2	0,038
339,7	0,038
340,1	0,037
340,6	0,037
341	0,037
341,5	0,036
342	0,036
342,4	0,036
342,9	0,036
343,3	0,035
343,8	0,035
344,2	0,035
344,7	0,035
345,2	0,035
345,6	0,035
346,1	0,035
346,5	0,034
347	0,034
347,5	0,034
347,9	0,034
348,4	0,034
348,8	0,033
349,3	0,033
349,8	0,033
350,2	0,033
350,7	0,032
351,1	0,032
351,6	0,032
352	0,032
352,5	0,032
353	0,032
353,4	0,031
353,9	0,031
354,3	0,03
354,8	0,03
355,3	0,03
355,7	0,029
356,2	0,029
356,6	0,029
357,1	0,029
357,5	0,029
358	0,029
358,5	0,029
358,9	0,029
359,4	0,029
359,8	0,029
360,3	0,029
360,8	0,029
361,2	0,029
361,7	0,029
362,1	0,029
362,6	0,029
363	0,028
363,5	0,028
364	0,028
364,4	0,027
364,9	0,027
365,3	0,027
365,8	0,027
366,3	0,027
366,7	0,027
367,2	0,026
367,6	0,026
368,1	0,026
368,5	0,025
369	0,024
369,5	0,024
369,9	0,024
370,4	0,024
370,8	0,024
371,3	0,024
371,7	0,024
372,2	0,024
372,7	0,024
373,1	0,024
373,6	0,024
374	0,024
374,5	0,024
374,9	0,024
375,4	0,024
375,9	0,024
376,3	0,024
376,8	0,023
377,2	0,023
377,7	0,023
378,2	0,023
378,6	0,023
379,1	0,023
379,5	0,022
380	0,022
380,4	0,022
380,9	0,022
381,4	0,021
381,8	0,021
382,3	0,02
382,7	0,021
383,2	0,021
383,6	0,021
384,1	0,021
384,6	0,021
385	0,021
385,5	0,021
385,9	0,021
386,4	0,02
386,8	0,021
387,3	0,021
387,7	0,021
388,2	0,021
388,7	0,021
389,1	0,021
389,6	0,021
390	0,02
390,5	0,02
390,9	0,02
391,4	0,02
391,9	0,02
392,3	0,02
392,8	0,02
393,2	0,02
393,7	0,019
394,1	0,019
394,6	0,019
395,1	0,019
395,5	0,019
396	0,019
396,4	0,018
396,9	0,018
397,3	0,018
397,8	0,018
398,2	0,018
398,7	0,018
399,2	0,018
399,6	0,018
400,1	0,018
400,5	0,018
401	0,018
401,4	0,018
401,9	0,017
402,4	0,017
402,8	0,017
403,3	0,017
403,7	0,017
404,2	0,017
404,6	0,017
405,1	0,017
405,5	0,017
406	0,017
406,5	0,017
406,9	0,016
407,4	0,016
407,8	0,016
408,3	0,016
408,7	0,017
409,2	0,016
409,6	0,016
410,1	0,016
410,6	0,016
411	0,016
411,5	0,016
411,9	0,015
412,4	0,015
412,8	0,016
413,3	0,016
413,7	0,016
414,2	0,016
414,7	0,016
415,1	0,016
415,6	0,017
416	0,016
416,5	0,017
416,9	0,017
417,4	0,017
417,8	0,017
418,3	0,017
418,8	0,016
419,2	0,016
419,7	0,016
420,1	0,016
420,6	0,016
421	0,016
421,5	0,016
421,9	0,015
422,4	0,016
422,8	0,016
423,3	0,016
423,8	0,015
424,2	0,015
424,7	0,015
425,1	0,015
425,6	0,015
426	0,014
426,5	0,014
426,9	0,014
427,4	0,014
427,9	0,014
428,3	0,014
428,8	0,014
429,2	0,014
429,7	0,014
430,1	0,014
430,6	0,014
431	0,014
431,5	0,014
431,9	0,014
432,4	0,015
432,8	0,014
433,3	0,014
433,8	0,015
434,2	0,015
434,7	0,015
435,1	0,015
435,6	0,014
436	0,014
436,5	0,014
436,9	0,014
437,4	0,013
437,8	0,013
438,3	0,013
438,8	0,014
439,2	0,014
439,7	0,013
440,1	0,014
440,6	0,014
441	0,014
441,5	0,014
441,9	0,014
442,4	0,013
442,8	0,013
443,3	0,013
443,7	0,013
444,2	0,013
444,7	0,013
445,1	0,013
445,6	0,013
446	0,014
446,5	0,014
446,9	0,013
447,4	0,013
447,8	0,013
448,3	0,013
448,7	0,013
449,2	0,012
449,6	0,013
450,1	0,013
450,6	0,013
451	0,013
451,5	0,013
451,9	0,013
452,4	0,013
452,8	0,013
453,3	0,013
453,7	0,013
454,2	0,013
454,6	0,013
455,1	0,013
455,5	0,013
456	0,013
456,4	0,013
456,9	0,012
457,3	0,012
457,8	0,012
458,3	0,011
458,7	0,011
459,2	0,012
459,6	0,011
460,1	0,011
460,5	0,011
461	0,011
461,4	0,011
461,9	0,012
462,3	0,011
462,8	0,011
463,2	0,012
463,7	0,012
464,1	0,011
464,6	0,011
465	0,011
465,5	0,011
466	0,011
466,4	0,011
466,9	0,011
467,3	0,012
467,8	0,012
468,2	0,012
468,7	0,012
469,1	0,012
469,6	0,012
470	0,011
470,5	0,011
470,9	0,011
471,4	0,012
471,8	0,012
472,3	0,012
472,7	0,012
473,2	0,012
473,6	0,012
474,1	0,011
474,5	0,011
475	0,011
475,4	0,01
475,9	0,01
476,4	0,01
476,8	0,01
477,3	0,011
477,7	0,011
478,2	0,01
478,6	0,011
479,1	0,011
479,5	0,011
480	0,01
480,4	0,01
480,9	0,011
481,3	0,011
481,8	0,01
482,2	0,01
482,7	0,01
483,1	0,01
483,6	0,01
484	0,01
484,5	0,01
484,9	0,01
485,4	0,01
485,8	0,01
486,3	0,01
486,7	0,01
487,2	0,011
487,6	0,011
488,1	0,01
488,5	0,01
489	0,01
489,4	0,01
489,9	0,009
490,4	0,009
490,8	0,009
491,3	0,009
491,7	0,009
492,2	0,009
492,6	0,01
493,1	0,01
493,5	0,011
494	0,01
494,4	0,01
494,9	0,01
495,3	0,01
495,8	0,009
496,2	0,008
496,7	0,008
497,1	0,008
497,6	0,009
498	0,009
498,5	0,009
498,9	0,009
499,4	0,009
499,8	0,009
500,3	0,008
500,7	0,009
501,2	0,009
501,6	0,009
502,1	0,009
502,5	0,009
503	0,009
503,4	0,009
503,9	0,009
504,3	0,009
504,8	0,01
505,2	0,01
505,7	0,01
506,1	0,009
506,6	0,009
507	0,008
507,5	0,008
507,9	0,008
508,4	0,008
508,8	0,008
509,3	0,008
509,7	0,009
510,2	0,009
510,6	0,009
511,1	0,009
511,5	0,009
512	0,009
512,4	0,008
512,9	0,008
513,3	0,008
513,8	0,008
514,2	0,008
514,7	0,008
515,1	0,008
515,6	0,008
516	0,008
516,5	0,008
516,9	0,008
517,4	0,008
517,8	0,008
518,3	0,008
518,7	0,008
519,2	0,008
519,6	0,008
520,1	0,009
520,5	0,008
521	0,008
521,4	0,008
521,9	0,009
522,3	0,008
522,8	0,008
523,2	0,008
523,7	0,008
524,1	0,008
524,6	0,008
525	0,008
525,5	0,008
525,9	0,008
526,4	0,008
526,8	0,007
527,3	0,007
527,7	0,007
528,2	0,007
528,6	0,007
529,1	0,007
529,5	0,007
530	0,007
530,4	0,007
530,9	0,007
531,3	0,007
531,8	0,007
532,2	0,007
532,6	0,007
533,1	0,008
533,5	0,008
534	0,007
534,4	0,007
534,9	0,008
535,3	0,008
535,8	0,009
536,2	0,007
536,7	0,008
537,1	0,008
537,6	0,009
538	0,009
538,5	0,009
538,9	0,009
539,4	0,009
539,8	0,009
540,3	0,009
540,7	0,008
541,2	0,008
541,6	0,008
542,1	0,007
542,5	0,007
543	0,007
543,4	0,007
543,9	0,006
544,3	0,007
544,8	0,006
545,2	0,007
545,7	0,007
546,1	0,007
546,5	0,007
547	0,008
547,4	0,007
547,9	0,007
548,3	0,006
548,8	0,007
549,2	0,007
549,7	0,006
550,1	0,005
550,6	0,005
551	0,006
551,5	0,006
551,9	0,006
552,4	0,006
552,8	0,006
553,3	0,006
553,7	0,006
554,2	0,006
554,6	0,005
555,1	0,005
555,5	0,005
555,9	0,005
556,4	0,006
556,8	0,006
557,3	0,006
557,7	0,006
558,2	0,006
558,6	0,006
559,1	0,006
559,5	0,005
560	0,005
560,4	0,005
560,9	0,005
561,3	0,005
561,8	0,005
562,2	0,005
562,7	0,005
563,1	0,006
563,6	0,005
564	0,005
564,4	0,005
564,9	0,005
565,3	0,005
565,8	0,005
566,2	0,005
566,7	0,005
567,1	0,005
567,6	0,005
568	0,005
568,5	0,005
568,9	0,005
569,4	0,005
569,8	0,005
570,3	0,005
570,7	0,005
571,1	0,006
571,6	0,005
572	0,005
572,5	0,005
572,9	0,006
573,4	0,005
573,8	0,005
574,3	0,005
574,7	0,005
575,2	0,005
575,6	0,005
576,1	0,005
576,5	0,005
576,9	0,005
577,4	0,006
577,8	0,005
578,3	0,006
578,7	0,005
579,2	0,005
579,6	0,005
580,1	0,005
580,5	0,005
581	0,005
581,4	0,005
581,9	0,005
582,3	0,005
582,7	0,005
583,2	0,005
583,6	0,005
584,1	0,005
584,5	0,005
585	0,006
585,4	0,006
585,9	0,005
586,3	0,005
586,8	0,005
587,2	0,005
587,6	0,005
588,1	0,005
588,5	0,005
589	0,005
589,4	0,006
589,9	0,006
590,3	0,006
590,8	0,006
591,2	0,005
591,7	0,005
592,1	0,005
592,5	0,005
593	0,005
593,4	0,005
593,9	0,005
594,3	0,005
594,8	0,005
595,2	0,005
595,7	0,005
596,1	0,005
596,6	0,005
597	0,005
597,4	0,005
597,9	0,005
598,3	0,005
598,8	0,004
599,2	0,005
599,7	0,004
600,1	0,005
600,6	0,005
601	0,004
601,4	0,004
601,9	0,004
602,3	0,004
602,8	0,005
603,2	0,004
603,7	0,004
604,1	0,005
604,6	0,004
605	0,004
605,4	0,004
605,9	0,004
606,3	0,004
606,8	0,004
607,2	0,004
607,7	0,004
608,1	0,004
608,6	0,004
609	0,004
609,4	0,003
609,9	0,003
610,3	0,003
610,8	0,003
611,2	0,004
611,7	0,004
612,1	0,004
612,6	0,004
613	0,004
613,4	0,004
613,9	0,005
614,3	0,004
614,8	0,004
615,2	0,004
615,7	0,004
616,1	0,004
616,6	0,004
617	0,005
617,4	0,005
617,9	0,005
618,3	0,005
618,8	0,005
619,2	0,005
619,7	0,005
620,1	0,004
620,5	0,004
621	0,004
621,4	0,004
621,9	0,004
622,3	0,005
622,8	0,004
623,2	0,005
623,6	0,005
624,1	0,004
624,5	0,004
625	0,004
625,4	0,004
625,9	0,004
626,3	0,004
626,8	0,004
627,2	0,005
627,6	0,005
628,1	0,005
628,5	0,005
629	0,005
629,4	0,004
629,9	0,005
630,3	0,004
630,7	0,004
631,2	0,004
631,6	0,004
632,1	0,004
632,5	0,004
633	0,004
633,4	0,004
633,8	0,004
634,3	0,004
634,7	0,004
635,2	0,004
635,6	0,005
636,1	0,005
636,5	0,004
636,9	0,004
637,4	0,004
637,8	0,004
638,3	0,004
638,7	0,003
639,2	0,004
639,6	0,004
640	0,004
640,5	0,004
640,9	0,005
641,4	0,005
641,8	0,004
642,2	0,004
642,7	0,005
643,1	0,004
643,6	0,004
644	0,003
644,5	0,003
644,9	0,004
645,3	0,004
645,8	0,003
646,2	0,004
646,7	0,004
647,1	0,004
647,6	0,004
648	0,004
648,4	0,004
648,9	0,004
649,3	0,004
649,8	0,004
650,2	0,004
650,6	0,004
651,1	0,004
651,5	0,004
652	0,004
652,4	0,004
652,9	0,003
653,3	0,003
653,7	0,002
654,2	0,001
654,6	0,001
655,1	0
655,5	0,001
655,9	0,001
656,4	0,002
656,8	0,002
657,3	0,002
657,7	0,003
658,2	0,005
658,6	0,004
659	0,003
659,5	0,003
659,9	0,003
660,4	0,003
660,8	0,003
661,2	0,003
661,7	0,003
662,1	0,003
662,6	0,003
663	0,003
663,4	0,003
663,9	0,003
664,3	0,003
664,8	0,003
665,2	0,003
665,6	0,003
666,1	0,003
666,5	0,003
667	0,003
667,4	0,003
667,9	0,003
668,3	0,003
668,7	0,004
669,2	0,003
669,6	0,003
670,1	0,003
670,5	0,003
670,9	0,003
671,4	0,003
671,8	0,004
672,3	0,003
672,7	0,003
673,1	0,003
673,6	0,003
674	0,003
674,5	0,003
674,9	0,003
675,3	0,003
675,8	0,004
676,2	0,004
676,7	0,004
677,1	0,004
677,5	0,004
678	0,004
678,4	0,003
678,9	0,003
679,3	0,003
679,7	0,003
680,2	0,003
680,6	0,003
681,1	0,003
681,5	0,003
681,9	0,003
682,4	0,003
682,8	0,003
683,3	0,003
683,7	0,003
684,1	0,003
684,6	0,003
685	0,002
685,5	0,002
685,9	0,002
686,3	0,002
686,8	0,002
687,2	0,002
687,7	0,002
688,1	0,002
688,5	0,002
689	0,002
689,4	0,002
689,9	0,002
690,3	0,002
690,7	0,002
691,2	0,002
691,6	0,002
692	0,003
692,5	0,002
692,9	0,002
693,4	0,002
693,8	0,002
694,2	0,003
694,7	0,003
695,1	0,003
695,6	0,003
696	0,003
696,4	0,004
696,9	0,003
697,3	0,003
697,8	0,004
698,2	0,003
698,6	0,004
699,1	0,003
699,5	0,003
699,9	0,004
700,4	0,003
700,8	0,003
701,3	0,003
701,7	0,003
702,1	0,002
702,6	0,002
703	0,003
703,5	0,003
703,9	0,003
704,3	0,003
704,8	0,003
705,2	0,003
705,6	0,003
706,1	0,003
706,5	0,003
707	0,003
707,4	0,003
707,8	0,003
708,3	0,003
708,7	0,003
709,2	0,003
709,6	0,003
710	0,003
710,5	0,003
710,9	0,003
711,3	0,003
711,8	0,003
712,2	0,003
712,7	0,003
713,1	0,003
713,5	0,003
714	0,003
714,4	0,003
714,8	0,003
715,3	0,003
715,7	0,003
716,2	0,002
716,6	0,003
717	0,002
717,5	0,002
717,9	0,002
718,3	0,002
718,8	0,002
719,2	0,002
719,7	0,002
720,1	0,002
720,5	0,003
721	0,003
721,4	0,003
721,8	0,003
722,3	0,003
722,7	0,003
723,2	0,003
723,6	0,003
724	0,003
724,5	0,003
724,9	0,003
725,3	0,003
725,8	0,003
726,2	0,003
726,7	0,003
727,1	0,003
727,5	0,003
728	0,003
728,4	0,003
728,8	0,003
729,3	0,003
729,7	0,003
730,1	0,003
730,6	0,003
731	0,004
731,5	0,004
731,9	0,004
732,3	0,004
732,8	0,003
733,2	0,003
733,6	0,003
734,1	0,003
734,5	0,003
734,9	0,003
735,4	0,003
735,8	0,003
736,3	0,003
736,7	0,003
737,1	0,003
737,6	0,003
738	0,003
738,4	0,003
738,9	0,003
739,3	0,003
739,7	0,003
740,2	0,003
740,6	0,003
741,1	0,002
741,5	0,002
741,9	0,002
742,4	0,002
742,8	0,003
743,2	0,002
743,7	0,002
744,1	0,002
744,5	0,002
745	0,003
745,4	0,003
745,8	0,002
746,3	0,002
746,7	0,003
747,2	0,003
747,6	0,002
748	0,002
748,5	0,002
748,9	0,002
749,3	0,003
749,8	0,002
750,2	0,003
750,6	0,003
751,1	0,003
751,5	0,003
751,9	0,003
752,4	0,002
752,8	0,003
753,3	0,003
753,7	0,002
754,1	0,002
754,6	0,002
755	0,002
755,4	0,002
755,9	0,003
756,3	0,002
756,7	0,002
757,2	0,002
757,6	0,002
758	0,003
758,5	0,003
758,9	0,003
759,3	0,003
759,8	0,002
760,2	0,003
760,6	0,003
761,1	0,002
761,5	0,002
761,9	0,002
762,4	0,002
762,8	0,002
763,3	0,002
763,7	0,002
764,1	0,002
764,6	0,002
765	0,003
765,4	0,003
765,9	0,003
766,3	0,003
766,7	0,003
767,2	0,003
767,6	0,003
768	0,003
768,5	0,003
768,9	0,003
769,3	0,003
769,8	0,003
770,2	0,003
770,6	0,003
771,1	0,003
771,5	0,003
771,9	0,002
772,4	0,002
772,8	0,002
773,2	0,002
773,7	0,002
774,1	0,002
774,5	0,002
775	0,002
775,4	0,001
775,8	0,001
776,3	0,001
776,7	0,001
777,1	0,001
777,6	0,001
778	0,001
778,4	0,001
778,9	0,002
779,3	0,001
779,7	0,001
780,2	0,002
780,6	0,002
781	0,002
781,5	0,002
781,9	0,002
782,3	0,002
782,8	0,002
783,2	0,002
783,6	0,002
784,1	0,001
784,5	0,001
784,9	0,001
785,4	0,001
785,8	0,001
786,2	0,002
786,7	0,002
787,1	0,003
787,5	0,003
788	0,003
788,4	0,003
788,8	0,004
789,3	0,003
789,7	0,003
790,1	0,003
790,6	0,003
791	0,003
791,4	0,002
791,9	0,002
792,3	0,002
792,7	0,002
793,2	0,002
793,6	0,002
794	0,003
794,5	0,003
794,9	0,003
795,3	0,004
795,8	0,004
796,2	0,004
796,6	0,004
797,1	0,003
797,5	0,003
797,9	0,003
798,4	0,002
798,8	0,002
799,2	0,002
799,7	0,002
800,1	0,002
800,5	0,002
801	0,003
801,4	0,003
801,8	0,003
802,2	0,003
802,7	0,004
803,1	0,004
803,5	0,004
804	0,003
804,4	0,003
804,8	0,003
805,3	0,002
805,7	0,002
806,1	0,002
806,6	0,002
807	0,002
807,4	0,002
807,9	0,002
808,3	0,003
808,7	0,003
809,2	0,003
809,6	0,003
810	0,003
810,4	0,003
810,9	0,003
811,3	0,002
811,7	0,002
812,2	0,002
812,6	0,002
813	0,001
813,5	0,001
813,9	0,001
814,3	0,001
814,8	0,001
815,2	0,001
815,6	0,001
816,1	0,001
816,5	0,001
816,9	0,001
817,3	0,001
817,8	0,001
818,2	0,002
818,6	0,002
819,1	0,002
819,5	0,002
819,9	0,002
820,4	0,002
820,8	0,002
821,2	0,002
821,7	0,001
822,1	0,002
822,5	0,002
822,9	0,002
823,4	0,002
823,8	0,002
824,2	0,003
824,7	0,003
825,1	0,003
825,5	0,003
826	0,003
826,4	0,003
826,8	0,002
827,3	0,002
827,7	0,002
828,1	0,002
828,5	0,002
829	0,002
829,4	0,001
829,8	0,002
830,3	0,002
830,7	0,002
831,1	0,002
831,6	0,002
832	0,002
832,4	0,002
832,8	0,002
833,3	0,002
833,7	0,002
834,1	0,001
834,6	0,001
835	0,002
835,4	0,001
835,8	0,002
836,3	0,002
836,7	0,001
837,1	0,001
837,6	0,001
838	0,001
838,4	0,001
838,9	0,001
839,3	0,001
839,7	0,001
840,1	0,001
840,6	0,001
841	0,001
841,4	0,001
841,9	0,002
842,3	0,002
842,7	0,002
843,1	0,002
843,6	0,002
844	0,002
844,4	0,002
844,9	0,002
845,3	0,002
845,7	0,002
846,2	0,002
846,6	0,002
847	0,002
847,4	0,001
847,9	0,001
848,3	0,001
848,7	0,001
849,2	0,001
849,6	0,001
850	0,001
850,4	0,002
850,9	0,002
851,3	0,002
851,7	0,002
852,2	0,002
852,6	0,002
853	0,003
853,4	0,002
853,9	0,002
854,3	0,002
854,7	0,002
855,2	0,002
855,6	0,002
856	0,002
856,4	0,002
856,9	0,002
857,3	0,002
857,7	0,002
858,2	0,001
858,6	0,001
859	0,001
859,4	0,001
859,9	0,001
860,3	0,002
860,7	0,002
861,1	0,002
861,6	0,002
862	0,002
862,4	0,002
862,9	0,002
863,3	0,002
863,7	0,002
864,1	0,003
864,6	0,003
865	0,003
865,4	0,004
865,9	0,003
866,3	0,003
866,7	0,003
867,1	0,002
867,6	0,002
868	0,002
868,4	0,002
868,8	0,002
869,3	0,002
869,7	0,002
870,1	0,002
870,6	0,002
871	0,002
871,4	0,002
871,8	0,001
872,3	0,002
872,7	0,002
873,1	0,002
873,5	0,002
874	0,002
874,4	0,002
874,8	0,002
875,3	0,002
875,7	0,002
876,1	0,002
876,5	0,002
877	0,002
877,4	0,002
877,8	0,002
878,2	0,002
878,7	0,002
879,1	0,002
879,5	0,002
879,9	0,002
880,4	0,002
880,8	0,002
881,2	0,002
881,7	0,002
882,1	0,002
882,5	0,002
882,9	0,002
883,4	0,002
883,8	0,002
884,2	0,002
884,6	0,002
885,1	0,002
885,5	0,002
885,9	0,002
886,3	0,002
886,8	0,002
887,2	0,002
887,6	0,002
888	0,002
888,5	0,002
888,9	0,002
889,3	0,003
889,8	0,003
890,2	0,003
890,6	0,002
891	0,002
891,5	0,003
891,9	0,002
892,3	0,002
892,7	0,002
893,2	0,002
893,6	0,002
894	0,002
894,4	0,002
894,9	0,002
895,3	0,002
895,7	0,002
896,1	0,002
896,6	0,002
897	0,002
897,4	0,002
897,8	0,002
898,3	0,002
898,7	0,002
899,1	0,002
899,5	0,002
900	0,002
900,4	0,002
900,8	0,002
901,2	0,002
901,7	0,002
902,1	0,002
902,5	0,002
902,9	0,002
903,4	0,002
903,8	0,002
904,2	0,002
904,6	0,002
905,1	0,002
905,5	0,002
905,9	0,002
906,3	0,002
906,8	0,002
907,2	0,003
907,6	0,003
908	0,003
908,5	0,004
908,9	0,004
909,3	0,004
909,7	0,004
910,2	0,003
910,6	0,003
911	0,003
911,4	0,003
911,9	0,003
912,3	0,003
912,7	0,002
913,1	0,002
913,6	0,002
914	0,002
914,4	0,002
914,8	0,002
915,3	0,002
915,7	0,002
916,1	0,002
916,5	0,002
916,9	0,001
917,4	0,001
917,8	0,001
918,2	0,001
918,6	0
919,1	0
919,5	0
919,9	0
920,3	0,001
920,8	0,001
921,2	0,001
921,6	0,001
922	0,002
922,5	0,002
922,9	0,002
923,3	0,002
923,7	0,002
924,2	0,001
924,6	0,001
925	0,001
925,4	0,001
925,8	0,001
926,3	0,001
926,7	0,001
927,1	0,001
927,5	0,001
928	0,002
928,4	0,002
928,8	0,002
929,2	0,002
929,7	0,003
930,1	0,003
930,5	0,003
930,9	0,003
931,3	0,004
931,8	0,003
932,2	0,003
932,6	0,003
933	0,003
933,5	0,003
933,9	0,003
934,3	0,003
934,7	0,003
935,2	0,002
935,6	0,002
936	0,002
936,4	0,002
936,8	0,002
937,3	0,002
937,7	0,002
938,1	0,002
938,5	0,002
939	0,002
939,4	0,001
939,8	0,002
940,2	0,002
940,6	0,002
941,1	0,002
941,5	0,002
941,9	0,002
942,3	0,002
942,8	0,003
943,2	0,003
943,6	0,003
944	0,002
944,4	0,002
944,9	0,002
945,3	0,002
945,7	0,002
946,1	0,002
946,6	0,002
947	0,002
947,4	0,002
947,8	0,002
948,2	0,002
948,7	0,002
949,1	0,002
949,5	0,002
949,9	0,002
950,3	0,002
950,8	0,002
951,2	0,002
951,6	0,002
952	0,002
952,5	0,002
952,9	0,002
953,3	0,002
953,7	0,003
954,1	0,003
954,6	0,003
955	0,003
955,4	0,003
955,8	0,003
956,2	0,003
956,7	0,002
957,1	0,003
957,5	0,002
957,9	0,002
958,3	0,002
958,8	0,002
959,2	0,002
959,6	0,003
960	0,002
960,5	0,002
960,9	0,002
961,3	0,002
961,7	0,002
962,1	0,003
962,6	0,004
963	0,004
963,4	0,004
963,8	0,004
964,2	0,005
964,7	0,005
965,1	0,004
965,5	0,004
965,9	0,004
966,3	0,004
966,8	0,004
967,2	0,003
967,6	0,003
968	0,003
968,4	0,003
968,9	0,003
969,3	0,003
969,7	0,002
970,1	0,002
970,5	0,002
971	0,002
971,4	0,001
971,8	0,001
972,2	0
972,6	0
973,1	0
973,5	-0
973,9	-0
974,3	0,001
974,7	0,001
975,2	0,001
975,6	0,001
976	0,002
976,4	0,002
976,8	0,002
977,3	0,002
977,7	0,002
978,1	0,002
978,5	0,001
978,9	0,001
979,4	0,001
979,8	0,001
980,2	0,001
980,6	0,001
981	0,002
981,5	0,002
981,9	0,002
982,3	0,002
982,7	0,002
983,1	0,001
983,6	0,002
984	0,002
984,4	0,002
984,8	0,003
985,2	0,003
985,6	0,003
986,1	0,003
986,5	0,004
986,9	0,004
987,3	0,004
987,7	0,003
988,2	0,003
988,6	0,003
989	0,003
989,4	0,003
989,8	0,002
990,3	0,002
990,7	0,003
991,1	0,002
991,5	0,002
991,9	0,002
992,3	0,001
992,8	0,001
993,2	0,001
993,6	0,001
994	0,001
994,4	0,001
994,9	0,001
995,3	0,001
995,7	0,001
996,1	0,001
996,5	0,001
996,9	0,001
997,4	0,001
997,8	0,001
998,2	0,001
998,6	0,001
999	0,001
999,5	0,001
999,9	0,001
1000,3	0,001
1000,7	0,002
1001,1	0,002
1001,5	0,003
1002	0,003
1002,4	0,003
1002,8	0,003
1003,2	0,004
1003,6	0,003
1004	0,003
1004,5	0,003
1004,9	0,002
1005,3	0,002
1005,7	0,002
1006,1	0,002
1006,6	0,002
1007	0,002
1007,4	0,002
1007,8	0,002
1008,2	0,001
1008,6	0,001
1009,1	0,001
1009,5	0,001
1009,9	0,001
1010,3	0,001
1010,7	0,001
1011,1	0,001
1011,6	0,002
1012	0,002
1012,4	0,003
1012,8	0,003
1013,2	0,003
1013,6	0,003
1014,1	0,003
1014,5	0,003
1014,9	0,003
1015,3	0,003
1015,7	0,002
1016,1	0,002
1016,6	0,002
1017	0,001
1017,4	0,002
1017,8	0,001
1018,2	0,001
1018,6	0,001
1019,1	0,001
1019,5	0,002
1019,9	0,002
1020,3	0,002
1020,7	0,002
1021,1	0,003
1021,6	0,003
1022	0,003
1022,4	0,003
1022,8	0,003
1023,2	0,003
1023,6	0,004
1024,1	0,004
1024,5	0,003
1024,9	0,003
1025,3	0,003
1025,7	0,003
1026,1	0,002
1026,6	0,002
1027	0,001
1027,4	0,001
1027,8	0,001
1028,2	0,002
1028,6	0,002
1029	0,002
1029,5	0,003
1029,9	0,003
1030,3	0,003
1030,7	0,003
1031,1	0,003
1031,5	0,003
1032	0,003
1032,4	0,003
1032,8	0,002
1033,2	0,002
1033,6	0,002
1034	0,002
1034,4	0,001
1034,9	0,001
1035,3	0,001
1035,7	0,001
1036,1	0,001
1036,5	0,001
1036,9	0,001
1037,4	0,001
1037,8	0,001
1038,2	0,001
1038,6	0,001
1039	0
1039,4	0
1039,8	0
1040,3	0,001
1040,7	0
1041,1	0
1041,5	-0
1041,9	0,001
1042,3	0,002
1042,7	0,001
1043,2	0,002
1043,6	0,002
1044	0,002
1044,4	0,003
1044,8	0,002
1045,2	0,001
1045,6	0,002
1046,1	0,002
1046,5	0,001
1046,9	0,001
1047,3	0,001
1047,7	0,001
1048,1	0,001
1048,5	0
1049	-0
1049,4	-0
1049,8	0
1050,2	-0,001
1050,6	0
1051	0,001
1051,4	0,002
1051,9	0,002
1052,3	0,002
1052,7	0,001
1053,1	0,002
1053,5	0,002
1053,9	0,001
1054,3	0,001
1054,8	0,001
1055,2	0,001
1055,6	0,001
1056	0,001
1056,4	0
1056,8	-0
1057,2	-0
1057,6	0
1058,1	0,001
1058,5	0
1058,9	-0
1059,3	0
1059,7	0,001
1060,1	0,001
1060,5	0,001
1061	0,001
1061,4	0,001
1061,8	0,002
1062,2	0,002
1062,6	0,001
1063	0,003
1063,4	0,002
1063,8	0,002
1064,3	0,002
1064,7	0,001
1065,1	0,001
1065,5	-0
1065,9	-0,002
1066,3	-0,001
1066,7	-0,001
1067,1	-0,001
1067,6	0,001
1068	0,001
1068,4	0,002
1068,8	0,002
1069,2	0,003
1069,6	0,003
1070	0,003
1070,4	0,003
1070,9	0,003
1071,3	0,002
1071,7	0,002
1072,1	0,001
1072,5	0,001
1072,9	0,001
1073,3	0
1073,7	0,001
1074,2	0,002
1074,6	0,001
1075	0,002
1075,4	0,001
1075,8	0,001
1076,2	0
1076,6	0
1077	0,001
1077,5	0,001
1077,9	0
1078,3	0
1078,7	0,001
1079,1	0,002
1079,5	0,001
1079,9	0
1080,3	0
1080,7	0,002
1081,2	0,003
1081,6	0,004
1082	0,003
1082,4	0,006
1082,8	0,005
1083,2	0,006
1083,6	0,005
1084	0,003
1084,5	0,002
1084,9	0,004
1085,3	0,001
1085,7	0,001
1086,1	0,002
1086,5	0,004
1086,9	0,004
1087,3	0,005
1087,7	0,005
1088,2	0,006
1088,6	0,007
1089	0,004
1089,4	0,004
1089,8	0,006
1090,2	0,006
1090,6	0,003
1091	0,004
1091,4	0,002
1091,9	0,002
1092,3	0,002
1092,7	0,001
1093,1	0,002
1093,5	-0,001
1093,9	-0
1094,3	-0,001
1094,7	0,001
1095,1	-0,005
1095,5	-0,004
1096	-0,001
1096,4	0,001
1096,8	-0,005
1097,2	-0,002
1097,6	-0,001
1098	0,004
1098,4	0,006
1098,8	0,002
1099,2	0,002
1099,6	0,018
1100,1	0,025
1100,5	0,03
1100,9	0,038
1101,3	0,032
1101,7	0,031
1102,1	0,034
1102,5	0,024
1102,9	0,015
1103,3	0
1103,7	-0,005
1104,2	-0,006
1104,6	-0,002
1105	0,001
1105,4	0,003
1105,8	0,01
1106,2	0,023
1106,6	0,026
1107	0,053
1107,4	0,057
1107,8	0,056
1108,3	-0
