Data from Absorbance_199.txt Node
Date: Fri Nov 13 21:00:01 MSK 2020
User: vat
Spectrometer: MAYP114033
Trigger mode: 0
Integration Time (sec): 8,000000E-3
Scans to average: 10
Electric dark correction enabled: true
Nonlinearity correction enabled: false
Boxcar width: 3
XAxis mode: Wavelengths
Number of Pixels in Spectrum: 2068
>>>>>Begin Spectral Data<<<<<
199,4	-0
199,9	-0,175
200,4	-0,054
200,8	-0,011
201,3	0,031
201,8	0,038
202,2	0,049
202,7	0,057
203,2	0,052
203,6	0,051
204,1	0,061
204,6	0,057
205	0,051
205,5	0,071
206	0,062
206,4	0,084
206,9	0,085
207,4	0,075
207,8	0,083
208,3	0,076
208,8	0,075
209,2	0,085
209,7	0,078
210,2	0,081
210,6	0,08
211,1	0,061
211,5	0,08
212	0,067
212,5	0,066
212,9	0,061
213,4	0,056
213,9	0,072
214,3	0,091
214,8	0,093
215,3	0,096
215,7	0,078
216,2	0,078
216,7	0,079
217,1	0,085
217,6	0,098
218,1	0,087
218,5	0,082
219	0,12
219,5	0,124
219,9	0,133
220,4	0,099
220,9	0,074
221,3	0,074
221,8	0,07
222,3	0,053
222,7	0,049
223,2	0,05
223,6	0,073
224,1	0,087
224,6	0,081
225	0,101
225,5	0,082
226	0,063
226,4	0,062
226,9	0,057
227,4	0,073
227,8	0,089
228,3	0,088
228,8	0,099
229,2	0,113
229,7	0,115
230,2	0,112
230,6	0,099
231,1	0,109
231,5	0,097
232	0,102
232,5	0,116
232,9	0,116
233,4	0,112
233,9	0,108
234,3	0,101
234,8	0,102
235,3	0,116
235,7	0,113
236,2	0,117
236,7	0,13
237,1	0,132
237,6	0,126
238,1	0,143
238,5	0,137
239	0,136
239,4	0,145
239,9	0,142
240,4	0,147
240,8	0,151
241,3	0,163
241,8	0,172
242,2	0,181
242,7	0,173
243,2	0,177
243,6	0,184
244,1	0,193
244,6	0,183
245	0,194
245,5	0,206
245,9	0,226
246,4	0,241
246,9	0,25
247,3	0,272
247,8	0,286
248,3	0,294
248,7	0,296
249,2	0,302
249,7	0,308
250,1	0,311
250,6	0,309
251	0,322
251,5	0,326
252	0,334
252,4	0,34
252,9	0,343
253,4	0,351
253,8	0,358
254,3	0,364
254,8	0,371
255,2	0,378
255,7	0,386
256,1	0,396
256,6	0,401
257,1	0,41
257,5	0,418
258	0,427
258,5	0,437
258,9	0,445
259,4	0,457
259,9	0,469
260,3	0,479
260,8	0,49
261,2	0,503
261,7	0,513
262,2	0,527
262,6	0,537
263,1	0,549
263,6	0,561
264	0,575
264,5	0,587
264,9	0,6
265,4	0,613
265,9	0,627
266,3	0,64
266,8	0,653
267,3	0,665
267,7	0,678
268,2	0,692
268,7	0,707
269,1	0,72
269,6	0,734
270	0,748
270,5	0,763
271	0,777
271,4	0,789
271,9	0,8
272,4	0,812
272,8	0,825
273,3	0,837
273,7	0,847
274,2	0,857
274,7	0,869
275,1	0,88
275,6	0,89
276,1	0,899
276,5	0,907
277	0,917
277,4	0,926
277,9	0,933
278,4	0,94
278,8	0,946
279,3	0,951
279,8	0,956
280,2	0,959
280,7	0,962
281,1	0,965
281,6	0,967
282,1	0,969
282,5	0,97
283	0,969
283,4	0,967
283,9	0,965
284,4	0,961
284,8	0,957
285,3	0,951
285,8	0,946
286,2	0,94
286,7	0,934
287,1	0,925
287,6	0,918
288,1	0,907
288,5	0,897
289	0,886
289,5	0,874
289,9	0,862
290,4	0,849
290,8	0,835
291,3	0,821
291,8	0,807
292,2	0,791
292,7	0,774
293,1	0,757
293,6	0,739
294,1	0,722
294,5	0,704
295	0,685
295,5	0,667
295,9	0,649
296,4	0,63
296,8	0,611
297,3	0,592
297,8	0,572
298,2	0,554
298,7	0,536
299,1	0,517
299,6	0,499
300,1	0,481
300,5	0,464
301	0,446
301,5	0,428
301,9	0,411
302,4	0,394
302,8	0,377
303,3	0,362
303,8	0,346
304,2	0,331
304,7	0,318
305,1	0,304
305,6	0,29
306,1	0,278
306,5	0,265
307	0,254
307,4	0,243
307,9	0,231
308,4	0,221
308,8	0,212
309,3	0,202
309,8	0,193
310,2	0,185
310,7	0,177
311,1	0,169
311,6	0,162
312,1	0,155
312,5	0,149
313	0,142
313,4	0,136
313,9	0,131
314,4	0,125
314,8	0,12
315,3	0,116
315,7	0,112
316,2	0,108
316,7	0,105
317,1	0,101
317,6	0,098
318	0,095
318,5	0,092
319	0,089
319,4	0,086
319,9	0,084
320,3	0,082
320,8	0,08
321,3	0,078
321,7	0,077
322,2	0,075
322,6	0,074
323,1	0,072
323,6	0,072
324	0,07
324,5	0,069
324,9	0,068
325,4	0,067
325,9	0,066
326,3	0,065
326,8	0,064
327,2	0,063
327,7	0,061
328,2	0,061
328,6	0,06
329,1	0,059
329,5	0,058
330	0,057
330,5	0,057
330,9	0,056
331,4	0,056
331,8	0,055
332,3	0,054
332,8	0,054
333,2	0,054
333,7	0,053
334,1	0,054
334,6	0,053
335,1	0,053
335,5	0,052
336	0,052
336,4	0,052
336,9	0,052
337,4	0,051
337,8	0,051
338,3	0,051
338,7	0,05
339,2	0,05
339,7	0,05
340,1	0,049
340,6	0,049
341	0,048
341,5	0,048
342	0,048
342,4	0,047
342,9	0,047
343,3	0,047
343,8	0,047
344,2	0,047
344,7	0,047
345,2	0,047
345,6	0,046
346,1	0,046
346,5	0,046
347	0,046
347,5	0,046
347,9	0,046
348,4	0,046
348,8	0,046
349,3	0,045
349,8	0,045
350,2	0,045
350,7	0,045
351,1	0,045
351,6	0,045
352	0,044
352,5	0,045
353	0,045
353,4	0,044
353,9	0,043
354,3	0,043
354,8	0,042
355,3	0,041
355,7	0,041
356,2	0,041
356,6	0,04
357,1	0,04
357,5	0,04
358	0,04
358,5	0,04
358,9	0,041
359,4	0,041
359,8	0,041
360,3	0,04
360,8	0,041
361,2	0,04
361,7	0,04
362,1	0,04
362,6	0,04
363	0,04
363,5	0,04
364	0,039
364,4	0,039
364,9	0,039
365,3	0,039
365,8	0,038
366,3	0,038
366,7	0,037
367,2	0,038
367,6	0,038
368,1	0,038
368,5	0,038
369	0,038
369,5	0,038
369,9	0,038
370,4	0,037
370,8	0,037
371,3	0,036
371,7	0,035
372,2	0,035
372,7	0,035
373,1	0,035
373,6	0,035
374	0,034
374,5	0,034
374,9	0,035
375,4	0,034
375,9	0,033
376,3	0,033
376,8	0,033
377,2	0,033
377,7	0,033
378,2	0,032
378,6	0,032
379,1	0,032
379,5	0,032
380	0,032
380,4	0,032
380,9	0,031
381,4	0,031
381,8	0,03
382,3	0,03
382,7	0,03
383,2	0,03
383,6	0,03
384,1	0,031
384,6	0,031
385	0,031
385,5	0,03
385,9	0,03
386,4	0,029
386,8	0,029
387,3	0,029
387,7	0,029
388,2	0,028
388,7	0,029
389,1	0,029
389,6	0,028
390	0,028
390,5	0,029
390,9	0,029
391,4	0,029
391,9	0,028
392,3	0,028
392,8	0,028
393,2	0,028
393,7	0,028
394,1	0,028
394,6	0,027
395,1	0,027
395,5	0,027
396	0,027
396,4	0,026
396,9	0,027
397,3	0,026
397,8	0,026
398,2	0,026
398,7	0,026
399,2	0,026
399,6	0,026
400,1	0,026
400,5	0,026
401	0,026
401,4	0,027
401,9	0,027
402,4	0,027
402,8	0,026
403,3	0,026
403,7	0,026
404,2	0,026
404,6	0,026
405,1	0,025
405,5	0,025
406	0,025
406,5	0,024
406,9	0,025
407,4	0,025
407,8	0,025
408,3	0,024
408,7	0,024
409,2	0,024
409,6	0,025
410,1	0,024
410,6	0,024
411	0,024
411,5	0,024
411,9	0,024
412,4	0,024
412,8	0,024
413,3	0,024
413,7	0,024
414,2	0,024
414,7	0,023
415,1	0,023
415,6	0,023
416	0,023
416,5	0,022
416,9	0,022
417,4	0,022
417,8	0,022
418,3	0,023
418,8	0,023
419,2	0,024
419,7	0,023
420,1	0,023
420,6	0,023
421	0,023
421,5	0,022
421,9	0,022
422,4	0,022
422,8	0,022
423,3	0,022
423,8	0,022
424,2	0,022
424,7	0,022
425,1	0,022
425,6	0,022
426	0,022
426,5	0,022
426,9	0,021
427,4	0,021
427,9	0,021
428,3	0,022
428,8	0,022
429,2	0,021
429,7	0,021
430,1	0,02
430,6	0,02
431	0,02
431,5	0,019
431,9	0,019
432,4	0,019
432,8	0,019
433,3	0,019
433,8	0,019
434,2	0,019
434,7	0,019
435,1	0,019
435,6	0,019
436	0,019
436,5	0,019
436,9	0,02
437,4	0,02
437,8	0,02
438,3	0,019
438,8	0,019
439,2	0,019
439,7	0,018
440,1	0,018
440,6	0,018
441	0,018
441,5	0,018
441,9	0,017
442,4	0,017
442,8	0,018
443,3	0,018
443,7	0,018
444,2	0,019
444,7	0,019
445,1	0,019
445,6	0,019
446	0,019
446,5	0,019
446,9	0,019
447,4	0,018
447,8	0,018
448,3	0,017
448,7	0,017
449,2	0,017
449,6	0,017
450,1	0,016
450,6	0,016
451	0,017
451,5	0,017
451,9	0,016
452,4	0,016
452,8	0,015
453,3	0,016
453,7	0,015
454,2	0,015
454,6	0,015
455,1	0,015
455,5	0,015
456	0,015
456,4	0,016
456,9	0,016
457,3	0,016
457,8	0,016
458,3	0,015
458,7	0,015
459,2	0,015
459,6	0,015
460,1	0,015
460,5	0,015
461	0,015
461,4	0,015
461,9	0,015
462,3	0,015
462,8	0,015
463,2	0,015
463,7	0,015
464,1	0,015
464,6	0,015
465	0,015
465,5	0,015
466	0,015
466,4	0,015
466,9	0,014
467,3	0,014
467,8	0,014
468,2	0,014
468,7	0,014
469,1	0,014
469,6	0,014
470	0,014
470,5	0,013
470,9	0,013
471,4	0,013
471,8	0,013
472,3	0,013
472,7	0,014
473,2	0,014
473,6	0,015
474,1	0,015
474,5	0,015
475	0,015
475,4	0,015
475,9	0,015
476,4	0,014
476,8	0,014
477,3	0,014
477,7	0,014
478,2	0,013
478,6	0,014
479,1	0,013
479,5	0,014
480	0,014
480,4	0,014
480,9	0,013
481,3	0,014
481,8	0,014
482,2	0,014
482,7	0,014
483,1	0,013
483,6	0,014
484	0,014
484,5	0,013
484,9	0,013
485,4	0,013
485,8	0,013
486,3	0,013
486,7	0,012
487,2	0,012
487,6	0,012
488,1	0,013
488,5	0,013
489	0,013
489,4	0,013
489,9	0,013
490,4	0,013
490,8	0,013
491,3	0,013
491,7	0,013
492,2	0,012
492,6	0,011
493,1	0,012
493,5	0,011
494	0,011
494,4	0,011
494,9	0,01
495,3	0,011
495,8	0,012
496,2	0,011
496,7	0,012
497,1	0,012
497,6	0,012
498	0,012
498,5	0,012
498,9	0,012
499,4	0,012
499,8	0,012
500,3	0,011
500,7	0,011
501,2	0,011
501,6	0,011
502,1	0,011
502,5	0,011
503	0,011
503,4	0,011
503,9	0,012
504,3	0,011
504,8	0,011
505,2	0,01
505,7	0,01
506,1	0,01
506,6	0,009
507	0,009
507,5	0,009
507,9	0,01
508,4	0,01
508,8	0,01
509,3	0,01
509,7	0,011
510,2	0,011
510,6	0,011
511,1	0,01
511,5	0,01
512	0,011
512,4	0,011
512,9	0,01
513,3	0,01
513,8	0,011
514,2	0,011
514,7	0,01
515,1	0,011
515,6	0,01
516	0,01
516,5	0,01
516,9	0,01
517,4	0,01
517,8	0,01
518,3	0,01
518,7	0,01
519,2	0,01
519,6	0,01
520,1	0,01
520,5	0,01
521	0,009
521,4	0,009
521,9	0,009
522,3	0,009
522,8	0,009
523,2	0,009
523,7	0,01
524,1	0,01
524,6	0,01
525	0,01
525,5	0,01
525,9	0,009
526,4	0,009
526,8	0,009
527,3	0,009
527,7	0,009
528,2	0,009
528,6	0,009
529,1	0,009
529,5	0,009
530	0,009
530,4	0,01
530,9	0,009
531,3	0,009
531,8	0,009
532,2	0,008
532,6	0,007
533,1	0,007
533,5	0,007
534	0,007
534,4	0,007
534,9	0,008
535,3	0,008
535,8	0,008
536,2	0,008
536,7	0,008
537,1	0,008
537,6	0,007
538	0,007
538,5	0,007
538,9	0,007
539,4	0,007
539,8	0,007
540,3	0,007
540,7	0,007
541,2	0,007
541,6	0,007
542,1	0,006
542,5	0,006
543	0,006
543,4	0,006
543,9	0,006
544,3	0,006
544,8	0,006
545,2	0,006
545,7	0,007
546,1	0,006
546,5	0,006
547	0,006
547,4	0,006
547,9	0,006
548,3	0,006
548,8	0,006
549,2	0,006
549,7	0,006
550,1	0,007
550,6	0,007
551	0,006
551,5	0,006
551,9	0,006
552,4	0,006
552,8	0,006
553,3	0,006
553,7	0,006
554,2	0,006
554,6	0,005
555,1	0,005
555,5	0,005
555,9	0,005
556,4	0,005
556,8	0,005
557,3	0,005
557,7	0,005
558,2	0,005
558,6	0,005
559,1	0,005
559,5	0,005
560	0,005
560,4	0,005
560,9	0,005
561,3	0,005
561,8	0,005
562,2	0,005
562,7	0,004
563,1	0,004
563,6	0,005
564	0,004
564,4	0,004
564,9	0,004
565,3	0,004
565,8	0,004
566,2	0,004
566,7	0,004
567,1	0,005
567,6	0,005
568	0,005
568,5	0,005
568,9	0,005
569,4	0,005
569,8	0,004
570,3	0,004
570,7	0,004
571,1	0,004
571,6	0,004
572	0,004
572,5	0,003
572,9	0,004
573,4	0,004
573,8	0,004
574,3	0,004
574,7	0,003
575,2	0,003
575,6	0,004
576,1	0,003
576,5	0,004
576,9	0,004
577,4	0,004
577,8	0,004
578,3	0,004
578,7	0,004
579,2	0,004
579,6	0,004
580,1	0,004
580,5	0,004
581	0,003
581,4	0,003
581,9	0,003
582,3	0,003
582,7	0,003
583,2	0,003
583,6	0,002
584,1	0,002
584,5	0,002
585	0,002
585,4	0,003
585,9	0,003
586,3	0,002
586,8	0,003
587,2	0,003
587,6	0,003
588,1	0,003
588,5	0,003
589	0,003
589,4	0,003
589,9	0,003
590,3	0,003
590,8	0,003
591,2	0,002
591,7	0,002
592,1	0,002
592,5	0,002
593	0,002
593,4	0,002
593,9	0,002
594,3	0,002
594,8	0,002
595,2	0,002
595,7	0,002
596,1	0,002
596,6	0,002
597	0,002
597,4	0,001
597,9	0,002
598,3	0,002
598,8	0,002
599,2	0,002
599,7	0,002
600,1	0,002
600,6	0,002
601	0,002
601,4	0,002
601,9	0,002
602,3	0,002
602,8	0,002
603,2	0,002
603,7	0,002
604,1	0,001
604,6	0,002
605	0,001
605,4	0,001
605,9	0,002
606,3	0,002
606,8	0,002
607,2	0,002
607,7	0,002
608,1	0,002
608,6	0,003
609	0,003
609,4	0,003
609,9	0,003
610,3	0,003
610,8	0,002
611,2	0,003
611,7	0,002
612,1	0,002
612,6	0,002
613	0,002
613,4	0,002
613,9	0,002
614,3	0,002
614,8	0,002
615,2	0,002
615,7	0,001
616,1	0,001
616,6	0,001
617	0,001
617,4	0,001
617,9	0,002
618,3	0,002
618,8	0,002
619,2	0,002
619,7	0,002
620,1	0,001
620,5	0,001
621	0
621,4	0
621,9	0
622,3	0
622,8	-0
623,2	-0
623,6	-0
624,1	0
624,5	0
625	0
625,4	0,001
625,9	0,001
626,3	0,002
626,8	0,002
627,2	0,002
627,6	0,001
628,1	0,001
628,5	0,001
629	0,001
629,4	0
629,9	0
630,3	0,001
630,7	0,001
631,2	0,001
631,6	0,001
632,1	0,001
632,5	0,001
633	0,001
633,4	0,001
633,8	0,001
634,3	0,001
634,7	0,001
635,2	0,001
635,6	0,001
636,1	0
636,5	0
636,9	0
637,4	-0
637,8	-0
638,3	-0
638,7	-0
639,2	-0
639,6	-0,001
640	-0
640,5	-0
640,9	0
641,4	0
641,8	-0
642,2	0
642,7	0
643,1	0
643,6	0
644	0
644,5	0
644,9	0
645,3	-0
645,8	-0,001
646,2	-0,001
646,7	-0,001
647,1	-0,001
647,6	-0,001
648	-0,001
648,4	0
648,9	0,001
649,3	0,001
649,8	0,001
650,2	0,001
650,6	0,001
651,1	0,001
651,5	0,001
652	0,001
652,4	0,001
652,9	0,001
653,3	0,001
653,7	0,002
654,2	0,001
654,6	0,001
655,1	0,001
655,5	0
655,9	-0
656,4	-0
656,8	-0,001
657,3	-0,001
657,7	-0,001
658,2	-0,001
658,6	-0,001
659	-0,001
659,5	-0
659,9	-0
660,4	-0
660,8	0
661,2	0
661,7	0
662,1	0
662,6	-0
663	-0
663,4	-0,001
663,9	-0,001
664,3	-0,001
664,8	-0,001
665,2	-0,001
665,6	-0
666,1	0
666,5	0
667	0
667,4	0,001
667,9	0
668,3	0
668,7	0
669,2	0,001
669,6	0
670,1	0
670,5	0
670,9	0
671,4	0
671,8	-0
672,3	-0
672,7	-0
673,1	-0
673,6	-0
674	-0
674,5	0
674,9	-0
675,3	0
675,8	0
676,2	0,001
676,7	0
677,1	0
677,5	-0
678	0
678,4	0
678,9	0
679,3	0
679,7	0
680,2	0,001
680,6	0
681,1	0,001
681,5	0
681,9	0
682,4	0
682,8	-0
683,3	-0
683,7	-0
684,1	-0,001
684,6	-0,001
685	-0,001
685,5	-0,001
685,9	-0,001
686,3	-0,001
686,8	-0,001
687,2	-0,001
687,7	-0,001
688,1	-0
688,5	0
689	0
689,4	0
689,9	0
690,3	0
690,7	0
691,2	-0
691,6	-0
692	-0
692,5	-0,001
692,9	-0,001
693,4	-0,001
693,8	-0,001
694,2	-0,001
694,7	-0
695,1	-0,001
695,6	-0
696	-0,001
696,4	-0,001
696,9	-0,001
697,3	-0,001
697,8	-0,001
698,2	-0,001
698,6	-0,001
699,1	-0,001
699,5	-0,001
699,9	-0,002
700,4	-0,002
700,8	-0,002
701,3	-0,002
701,7	-0,001
702,1	-0,001
702,6	-0,001
703	-0,001
703,5	-0,001
703,9	-0,001
704,3	-0,001
704,8	-0,001
705,2	-0,001
705,6	-0,001
706,1	-0,001
706,5	-0,001
707	-0,001
707,4	-0,001
707,8	-0,001
708,3	-0,001
708,7	-0,001
709,2	-0,001
709,6	-0,001
710	-0,001
710,5	-0,001
710,9	-0,001
711,3	-0,001
711,8	-0,001
712,2	-0,001
712,7	-0,001
713,1	-0,001
713,5	-0
714	-0,001
714,4	-0,001
714,8	-0,001
715,3	-0,001
715,7	-0
716,2	-0
716,6	-0
717	-0
717,5	-0
717,9	-0
718,3	-0
718,8	-0,001
719,2	-0,001
719,7	-0,001
720,1	-0,001
720,5	-0,001
721	-0,001
721,4	-0,001
721,8	-0,001
722,3	-0,001
722,7	-0,001
723,2	-0,001
723,6	-0,001
724	-0,001
724,5	-0
724,9	-0
725,3	0
725,8	0
726,2	0
726,7	0
727,1	-0
727,5	-0
728	-0
728,4	-0,001
728,8	-0,001
729,3	-0,001
729,7	-0,001
730,1	-0,001
730,6	-0,001
731	-0,001
731,5	-0,001
731,9	-0,001
732,3	-0,001
732,8	-0,001
733,2	-0,001
733,6	-0
734,1	-0
734,5	-0
734,9	-0
735,4	0
735,8	0
736,3	-0
736,7	-0
737,1	-0,001
737,6	-0,001
738	-0,001
738,4	-0,002
738,9	-0,002
739,3	-0,001
739,7	-0,001
740,2	-0,001
740,6	-0,001
741,1	-0,001
741,5	-0,002
741,9	-0,002
742,4	-0,002
742,8	-0,002
743,2	-0,002
743,7	-0,002
744,1	-0,001
744,5	-0,001
745	-0,001
745,4	-0,001
745,8	-0,001
746,3	-0,001
746,7	-0,001
747,2	-0,001
747,6	-0,001
748	-0,001
748,5	-0,001
748,9	-0,001
749,3	-0,001
749,8	-0,001
750,2	-0,001
750,6	-0,001
751,1	-0,001
751,5	-0,001
751,9	-0,001
752,4	-0,001
752,8	-0,001
753,3	-0,001
753,7	-0,001
754,1	-0,001
754,6	-0,001
755	-0,001
755,4	-0,001
755,9	-0,001
756,3	-0,001
756,7	-0,001
757,2	-0
757,6	-0
758	-0
758,5	-0
758,9	-0,001
759,3	-0,001
759,8	-0,001
760,2	-0,001
760,6	-0,001
761,1	-0,001
761,5	-0,001
761,9	-0,001
762,4	-0
762,8	-0
763,3	-0
763,7	-0
764,1	-0
764,6	-0,001
765	-0,001
765,4	-0,001
765,9	-0,002
766,3	-0,002
766,7	-0,002
767,2	-0,002
767,6	-0,002
768	-0,002
768,5	-0,002
768,9	-0,002
769,3	-0,001
769,8	-0,002
770,2	-0,001
770,6	-0,001
771,1	-0,001
771,5	-0,001
771,9	-0
772,4	-0
772,8	0
773,2	0
773,7	0
774,1	0
774,5	0
775	0
775,4	-0
775,8	-0
776,3	0
776,7	0
777,1	0
777,6	0
778	0
778,4	0
778,9	0
779,3	-0
779,7	-0
780,2	0
780,6	0
781	0,001
781,5	0,001
781,9	0,001
782,3	0,001
782,8	0,001
783,2	0,001
783,6	0,001
784,1	0,001
784,5	0,001
784,9	0,001
785,4	0,001
785,8	0
786,2	0
786,7	-0
787,1	-0,001
787,5	-0,001
788	-0,001
788,4	-0,002
788,8	-0,002
789,3	-0,002
789,7	-0,002
790,1	-0,001
790,6	-0,001
791	-0,001
791,4	-0,001
791,9	-0,001
792,3	-0,001
792,7	-0,001
793,2	-0,001
793,6	-0,001
794	-0,001
794,5	-0,001
794,9	-0,001
795,3	-0,001
795,8	-0,001
796,2	-0,001
796,6	-0
797,1	0
797,5	0,001
797,9	0,001
798,4	0,001
798,8	0,001
799,2	0,001
799,7	0
800,1	0
800,5	-0
801	-0
801,4	-0,001
801,8	-0,001
802,2	-0,001
802,7	-0
803,1	-0
803,5	-0
804	-0
804,4	-0
804,8	-0
805,3	-0
805,7	-0,001
806,1	-0,001
806,6	-0,001
807	-0,001
807,4	-0
807,9	-0
808,3	-0
808,7	-0
809,2	-0
809,6	-0,001
810	-0,001
810,4	-0,001
810,9	-0,001
811,3	-0,001
811,7	-0,001
812,2	-0,001
812,6	-0,001
813	-0,001
813,5	-0,002
813,9	-0,002
814,3	-0,002
814,8	-0,002
815,2	-0,002
815,6	-0,002
816,1	-0,001
816,5	-0,001
816,9	-0,001
817,3	-0,001
817,8	-0,001
818,2	-0,001
818,6	-0,001
819,1	-0,001
819,5	-0,001
819,9	-0,001
820,4	-0,001
820,8	-0,001
821,2	-0,001
821,7	-0,001
822,1	-0,001
822,5	-0
822,9	-0
823,4	-0,001
823,8	-0
824,2	-0
824,7	-0,001
825,1	-0,001
825,5	-0,001
826	-0,001
826,4	-0,001
826,8	-0,001
827,3	-0,001
827,7	-0,001
828,1	-0,001
828,5	-0,001
829	-0,001
829,4	-0,001
829,8	-0
830,3	-0
830,7	0
831,1	0
831,6	-0
832	-0
832,4	-0,001
832,8	-0,001
833,3	-0,001
833,7	-0,001
834,1	-0,001
834,6	-0,002
835	-0,001
835,4	-0,001
835,8	-0,001
836,3	-0,001
836,7	-0,001
837,1	-0,001
837,6	-0
838	0
838,4	0
838,9	0
839,3	-0
839,7	0
840,1	-0
840,6	-0
841	-0,001
841,4	-0,001
841,9	-0,001
842,3	-0,001
842,7	-0,001
843,1	-0,001
843,6	-0,001
844	-0,001
844,4	-0,002
844,9	-0,002
845,3	-0,002
845,7	-0,002
846,2	-0,002
846,6	-0,001
847	-0,001
847,4	-0,001
847,9	-0
848,3	0
848,7	0
849,2	0,001
849,6	0,001
850	0,001
850,4	0,001
850,9	0,001
851,3	0,001
851,7	0,001
852,2	0,001
852,6	0,001
853	0,001
853,4	0,001
853,9	0
854,3	0
854,7	0
855,2	-0
855,6	-0
856	-0
856,4	-0
856,9	-0
857,3	-0
857,7	-0
858,2	0
858,6	0,001
859	0,001
859,4	0
859,9	0,001
860,3	0
860,7	0
861,1	0
861,6	0
862	0
862,4	0
862,9	0
863,3	0
863,7	0
864,1	0
864,6	0
865	0
865,4	0
865,9	0
866,3	-0
866,7	-0
867,1	-0,001
867,6	-0,001
868	-0,001
868,4	-0,001
868,8	-0,001
869,3	-0,001
869,7	-0,001
870,1	-0,001
870,6	-0
871	-0,001
871,4	-0,001
871,8	-0,001
872,3	-0,001
872,7	-0,002
873,1	-0,002
873,5	-0,002
874	-0,002
874,4	-0,001
874,8	-0,001
875,3	-0,001
875,7	-0
876,1	-0
876,5	-0
877	-0
877,4	0
877,8	0
878,2	0
878,7	0
879,1	0,001
879,5	0
879,9	-0
880,4	-0
880,8	-0
881,2	-0,001
881,7	-0,001
882,1	-0,001
882,5	-0
882,9	-0
883,4	-0
883,8	0
884,2	-0
884,6	0
885,1	0
885,5	0
885,9	-0
886,3	-0
886,8	-0,001
887,2	-0,001
887,6	-0,001
888	-0,001
888,5	-0,001
888,9	-0,001
889,3	-0
889,8	-0
890,2	-0
890,6	-0,001
891	-0,001
891,5	-0,001
891,9	-0
892,3	0
892,7	0
893,2	0,001
893,6	0,001
894	0,001
894,4	0,001
894,9	0
895,3	-0
895,7	-0
896,1	-0,001
896,6	-0,001
897	-0,001
897,4	-0,001
897,8	-0,001
898,3	-0,001
898,7	-0,002
899,1	-0,002
899,5	-0,002
900	-0,002
900,4	-0,002
900,8	-0,002
901,2	-0,002
901,7	-0,002
902,1	-0,002
902,5	-0,003
902,9	-0,003
903,4	-0,003
903,8	-0,003
904,2	-0,003
904,6	-0,003
905,1	-0,002
905,5	-0,002
905,9	-0,001
906,3	-0,001
906,8	-0,001
907,2	-0
907,6	-0,001
908	-0,001
908,5	-0,001
908,9	-0,001
909,3	-0,001
909,7	-0,001
910,2	-0,001
910,6	-0
911	-0
911,4	-0
911,9	-0
912,3	-0
912,7	-0
913,1	-0
913,6	0
914	0
914,4	0
914,8	0
915,3	0
915,7	0
916,1	0
916,5	0
916,9	-0
917,4	-0
917,8	-0
918,2	-0
918,6	0
919,1	-0
919,5	-0
919,9	0
920,3	-0
920,8	-0,001
921,2	-0,001
921,6	-0,001
922	-0,001
922,5	-0,001
922,9	-0,001
923,3	-0,001
923,7	-0
924,2	-0
924,6	-0
925	-0
925,4	0
925,8	0
926,3	0
926,7	0
927,1	0
927,5	0
928	-0
928,4	-0
928,8	-0,001
929,2	-0
929,7	-0
930,1	-0
930,5	-0
930,9	0
931,3	0
931,8	-0
932,2	-0
932,6	-0,001
933	-0,001
933,5	-0,001
933,9	-0,001
934,3	-0,002
934,7	-0,002
935,2	-0,002
935,6	-0,002
936	-0,002
936,4	-0,002
936,8	-0,002
937,3	-0,002
937,7	-0,002
938,1	-0,002
938,5	-0,002
939	-0,002
939,4	-0,001
939,8	-0,001
940,2	-0,001
940,6	-0
941,1	0
941,5	0
941,9	0,001
942,3	0,001
942,8	0,001
943,2	0,001
943,6	0,001
944	0,001
944,4	0,001
944,9	0
945,3	0
945,7	0
946,1	0,001
946,6	0,001
947	0,001
947,4	0,001
947,8	0,002
948,2	0,002
948,7	0,001
949,1	0,001
949,5	0,001
949,9	0,001
950,3	0,001
950,8	0,001
951,2	0,001
951,6	0,001
952	0,002
952,5	0,001
952,9	0,002
953,3	0,002
953,7	0,003
954,1	0,002
954,6	0,002
955	0,003
955,4	0,003
955,8	0,003
956,2	0,002
956,7	0,002
957,1	0,002
957,5	0,001
957,9	0,001
958,3	0,001
958,8	0
959,2	0
959,6	0,001
960	0,001
960,5	0,001
960,9	0,001
961,3	0,001
961,7	0,001
962,1	0,002
962,6	0,001
963	0,002
963,4	0,002
963,8	0,002
964,2	0,002
964,7	0,002
965,1	0,002
965,5	0,002
965,9	0,002
966,3	0,002
966,8	0,002
967,2	0,002
967,6	0,003
968	0,002
968,4	0,002
968,9	0,002
969,3	0,002
969,7	0,002
970,1	0,003
970,5	0,002
971	0,003
971,4	0,002
971,8	0,002
972,2	0,002
972,6	0,003
973,1	0,002
973,5	0,003
973,9	0,002
974,3	0,003
974,7	0,003
975,2	0,002
975,6	0,002
976	0,003
976,4	0,003
976,8	0,002
977,3	0,002
977,7	0,002
978,1	0,002
978,5	0,002
978,9	0,001
979,4	0
979,8	0,001
980,2	0
980,6	-0
981	-0
981,5	-0,001
981,9	-0,001
982,3	0
982,7	0
983,1	0,001
983,6	0,001
984	0,001
984,4	0,001
984,8	0,001
985,2	0,001
985,6	0
986,1	-0
986,5	-0
986,9	0
987,3	0
987,7	0
988,2	0
988,6	0
989	-0,001
989,4	-0,001
989,8	-0,001
990,3	-0,001
990,7	-0,001
991,1	-0
991,5	0
991,9	0,001
992,3	0,001
992,8	0,001
993,2	0,001
993,6	0
994	-0
994,4	-0
994,9	-0,001
995,3	-0
995,7	0
996,1	-0,001
996,5	-0
996,9	0
997,4	-0,001
997,8	-0,001
998,2	-0,001
998,6	-0,001
999	-0,001
999,5	-0,002
999,9	-0,002
1000,3	-0,002
1000,7	-0,002
1001,1	-0,003
1001,5	-0,002
1002	-0,002
1002,4	-0,001
1002,8	-0,001
1003,2	-0,001
1003,6	-0,001
1004	-0
1004,5	-0
1004,9	-0
1005,3	-0
1005,7	-0,001
1006,1	-0,001
1006,6	-0
1007	0
1007,4	0
1007,8	-0
1008,2	-0,001
1008,6	-0,001
1009,1	-0,001
1009,5	-0
1009,9	-0,001
1010,3	-0,001
1010,7	-0,001
1011,1	-0
1011,6	0
1012	0
1012,4	-0
1012,8	-0
1013,2	-0,001
1013,6	-0
1014,1	-0,001
1014,5	-0,001
1014,9	-0
1015,3	-0
1015,7	-0
1016,1	-0
1016,6	-0,001
1017	-0,001
1017,4	-0,002
1017,8	-0,002
1018,2	-0,003
1018,6	-0,003
1019,1	-0,003
1019,5	-0,003
1019,9	-0,002
1020,3	-0,002
1020,7	-0,002
1021,1	-0,001
1021,6	-0,002
1022	-0,002
1022,4	-0,002
1022,8	-0,002
1023,2	-0,002
1023,6	-0,002
1024,1	-0,002
1024,5	-0,001
1024,9	-0,001
1025,3	-0,001
1025,7	-0,001
1026,1	-0,001
1026,6	-0,001
1027	-0,001
1027,4	-0,001
1027,8	-0,001
1028,2	-0,001
1028,6	-0,001
1029	-0,001
1029,5	-0,001
1029,9	-0,001
1030,3	-0,001
1030,7	-0,002
1031,1	-0,002
1031,5	-0,002
1032	-0,002
1032,4	-0,002
1032,8	-0,002
1033,2	-0,002
1033,6	-0,001
1034	-0,001
1034,4	-0,001
1034,9	-0,001
1035,3	-0,001
1035,7	-0,001
1036,1	-0,001
1036,5	-0,001
1036,9	-0,001
1037,4	-0,001
1037,8	-0,001
1038,2	-0
1038,6	-0,001
1039	-0
1039,4	-0,001
1039,8	-0
1040,3	0
1040,7	0
1041,1	-0
1041,5	0,001
1041,9	0
1042,3	0
1042,7	-0,001
1043,2	-0,001
1043,6	-0,001
1044	-0,001
1044,4	-0,001
1044,8	-0,001
1045,2	-0
1045,6	0
1046,1	0
1046,5	0
1046,9	0,001
1047,3	0
1047,7	0
1048,1	-0
1048,5	-0,001
1049	0
1049,4	0
1049,8	0
1050,2	0
1050,6	-0
1051	-0,001
1051,4	-0,001
1051,9	-0,001
1052,3	-0
1052,7	-0,001
1053,1	0
1053,5	0
1053,9	0,001
1054,3	0,001
1054,8	-0,001
1055,2	-0
1055,6	-0
1056	-0,001
1056,4	0
1056,8	0,001
1057,2	0,002
1057,6	0,003
1058,1	0,003
1058,5	0,003
1058,9	0,003
1059,3	0,003
1059,7	0,003
1060,1	0,003
1060,5	0,003
1061	0,002
1061,4	0,002
1061,8	0,002
1062,2	0,001
1062,6	0,001
1063	0
1063,4	0
1063,8	0
1064,3	0,001
1064,7	0,002
1065,1	0,001
1065,5	0,001
1065,9	0,001
1066,3	0,002
1066,7	0,001
1067,1	0,001
1067,6	0,001
1068	0,002
1068,4	0,002
1068,8	0,001
1069,2	0,001
1069,6	0,001
1070	0,001
1070,4	0,001
1070,9	0,001
1071,3	0,001
1071,7	0
1072,1	-0
1072,5	0
1072,9	-0
1073,3	-0
1073,7	-0,001
1074,2	-0
1074,6	0,001
1075	0,001
1075,4	0,001
1075,8	0,002
1076,2	0,001
1076,6	0,001
1077	0,002
1077,5	0,002
1077,9	0,001
1078,3	0
1078,7	0
1079,1	0,001
1079,5	0,001
1079,9	0
1080,3	-0,001
1080,7	-0,001
1081,2	-0,001
1081,6	-0,001
1082	-0,001
1082,4	-0,002
1082,8	-0,002
1083,2	-0,001
1083,6	-0,002
1084	-0,001
1084,5	-0,001
1084,9	0
1085,3	-0,001
1085,7	0,001
1086,1	0
1086,5	0,001
1086,9	0,001
1087,3	0
1087,7	0,002
1088,2	0,004
1088,6	0,002
1089	0,005
1089,4	0,006
1089,8	0,004
1090,2	0,004
1090,6	0,003
1091	0,003
1091,4	0,005
1091,9	0
1092,3	0,003
1092,7	0,004
1093,1	0,006
1093,5	0,007
1093,9	0,005
1094,3	0,004
1094,7	0,006
1095,1	0,009
1095,5	0,008
1096	0,004
1096,4	0,009
1096,8	0,012
1097,2	0,01
1097,6	0,008
1098	0,003
1098,4	0,011
1098,8	0,017
1099,2	0,013
1099,6	0,011
1100,1	0,013
1100,5	0,023
1100,9	0,025
1101,3	0,021
1101,7	0,016
1102,1	0,015
1102,5	0,013
1102,9	0,025
1103,3	0,021
1103,7	0,027
1104,2	0,02
1104,6	0,023
1105	0,023
1105,4	0,032
1105,8	0,029
1106,2	0,028
1106,6	0,034
1107	0,038
1107,4	0,062
1107,8	0,082
1108,3	-0,865
