Data from Absorbance_057.txt Node
Date: Fri Nov 13 14:03:24 MSK 2020
User: vat
Spectrometer: MAYP114033
Trigger mode: 0
Integration Time (sec): 8,000000E-3
Scans to average: 10
Electric dark correction enabled: true
Nonlinearity correction enabled: false
Boxcar width: 3
XAxis mode: Wavelengths
Number of Pixels in Spectrum: 2068
>>>>>Begin Spectral Data<<<<<
199,4	-0
199,9	0,278
200,4	0,111
200,8	0,116
201,3	0,039
201,8	0,081
202,2	0,085
202,7	0,093
203,2	0,091
203,6	0,087
204,1	0,092
204,6	0,094
205	0,081
205,5	0,086
206	0,089
206,4	0,085
206,9	0,102
207,4	0,101
207,8	0,099
208,3	0,106
208,8	0,101
209,2	0,089
209,7	0,102
210,2	0,105
210,6	0,099
211,1	0,118
211,5	0,131
212	0,155
212,5	0,162
212,9	0,159
213,4	0,154
213,9	0,158
214,3	0,139
214,8	0,148
215,3	0,136
215,7	0,136
216,2	0,135
216,7	0,132
217,1	0,13
217,6	0,126
218,1	0,101
218,5	0,11
219	0,11
219,5	0,118
219,9	0,125
220,4	0,119
220,9	0,108
221,3	0,138
221,8	0,137
222,3	0,141
222,7	0,131
223,2	0,147
223,6	0,164
224,1	0,171
224,6	0,152
225	0,156
225,5	0,144
226	0,144
226,4	0,121
226,9	0,102
227,4	0,108
227,8	0,107
228,3	0,11
228,8	0,118
229,2	0,127
229,7	0,125
230,2	0,134
230,6	0,131
231,1	0,128
231,5	0,123
232	0,11
232,5	0,104
232,9	0,104
233,4	0,117
233,9	0,118
234,3	0,124
234,8	0,119
235,3	0,134
235,7	0,127
236,2	0,147
236,7	0,135
237,1	0,147
237,6	0,139
238,1	0,141
238,5	0,136
239	0,146
239,4	0,132
239,9	0,136
240,4	0,128
240,8	0,131
241,3	0,143
241,8	0,148
242,2	0,141
242,7	0,13
243,2	0,127
243,6	0,13
244,1	0,132
244,6	0,131
245	0,138
245,5	0,152
245,9	0,151
246,4	0,148
246,9	0,155
247,3	0,151
247,8	0,147
248,3	0,149
248,7	0,149
249,2	0,163
249,7	0,163
250,1	0,159
250,6	0,159
251	0,16
251,5	0,158
252	0,155
252,4	0,151
252,9	0,152
253,4	0,151
253,8	0,151
254,3	0,151
254,8	0,151
255,2	0,152
255,7	0,155
256,1	0,156
256,6	0,158
257,1	0,161
257,5	0,164
258	0,165
258,5	0,167
258,9	0,169
259,4	0,172
259,9	0,175
260,3	0,177
260,8	0,18
261,2	0,184
261,7	0,187
262,2	0,192
262,6	0,194
263,1	0,198
263,6	0,202
264	0,205
264,5	0,208
264,9	0,211
265,4	0,214
265,9	0,218
266,3	0,222
266,8	0,225
267,3	0,228
267,7	0,232
268,2	0,235
268,7	0,238
269,1	0,241
269,6	0,245
270	0,248
270,5	0,252
271	0,256
271,4	0,259
271,9	0,263
272,4	0,266
272,8	0,268
273,3	0,271
273,7	0,274
274,2	0,277
274,7	0,28
275,1	0,283
275,6	0,286
276,1	0,288
276,5	0,29
277	0,292
277,4	0,294
277,9	0,296
278,4	0,298
278,8	0,299
279,3	0,301
279,8	0,302
280,2	0,304
280,7	0,304
281,1	0,305
281,6	0,305
282,1	0,306
282,5	0,305
283	0,305
283,4	0,304
283,9	0,304
284,4	0,303
284,8	0,303
285,3	0,301
285,8	0,3
286,2	0,298
286,7	0,296
287,1	0,293
287,6	0,29
288,1	0,287
288,5	0,284
289	0,28
289,5	0,277
289,9	0,273
290,4	0,269
290,8	0,266
291,3	0,262
291,8	0,257
292,2	0,254
292,7	0,249
293,1	0,244
293,6	0,24
294,1	0,235
294,5	0,23
295	0,225
295,5	0,219
295,9	0,214
296,4	0,208
296,8	0,202
297,3	0,196
297,8	0,19
298,2	0,185
298,7	0,18
299,1	0,174
299,6	0,169
300,1	0,164
300,5	0,16
301	0,155
301,5	0,15
301,9	0,145
302,4	0,14
302,8	0,136
303,3	0,131
303,8	0,127
304,2	0,122
304,7	0,118
305,1	0,114
305,6	0,11
306,1	0,106
306,5	0,103
307	0,099
307,4	0,096
307,9	0,093
308,4	0,09
308,8	0,087
309,3	0,084
309,8	0,081
310,2	0,078
310,7	0,076
311,1	0,074
311,6	0,072
312,1	0,07
312,5	0,068
313	0,067
313,4	0,065
313,9	0,063
314,4	0,062
314,8	0,06
315,3	0,058
315,7	0,057
316,2	0,056
316,7	0,054
317,1	0,053
317,6	0,052
318	0,052
318,5	0,051
319	0,049
319,4	0,049
319,9	0,048
320,3	0,047
320,8	0,047
321,3	0,046
321,7	0,045
322,2	0,045
322,6	0,044
323,1	0,043
323,6	0,042
324	0,042
324,5	0,042
324,9	0,042
325,4	0,041
325,9	0,041
326,3	0,04
326,8	0,04
327,2	0,04
327,7	0,039
328,2	0,039
328,6	0,038
329,1	0,038
329,5	0,037
330	0,037
330,5	0,037
330,9	0,037
331,4	0,037
331,8	0,036
332,3	0,036
332,8	0,036
333,2	0,035
333,7	0,035
334,1	0,034
334,6	0,034
335,1	0,033
335,5	0,033
336	0,032
336,4	0,033
336,9	0,033
337,4	0,032
337,8	0,033
338,3	0,032
338,7	0,032
339,2	0,032
339,7	0,031
340,1	0,031
340,6	0,031
341	0,031
341,5	0,03
342	0,031
342,4	0,03
342,9	0,03
343,3	0,03
343,8	0,03
344,2	0,03
344,7	0,03
345,2	0,029
345,6	0,029
346,1	0,029
346,5	0,029
347	0,029
347,5	0,029
347,9	0,029
348,4	0,029
348,8	0,029
349,3	0,029
349,8	0,029
350,2	0,028
350,7	0,028
351,1	0,029
351,6	0,028
352	0,028
352,5	0,028
353	0,028
353,4	0,028
353,9	0,027
354,3	0,027
354,8	0,027
355,3	0,027
355,7	0,027
356,2	0,027
356,6	0,027
357,1	0,027
357,5	0,026
358	0,026
358,5	0,026
358,9	0,026
359,4	0,026
359,8	0,026
360,3	0,027
360,8	0,026
361,2	0,026
361,7	0,025
362,1	0,025
362,6	0,025
363	0,024
363,5	0,024
364	0,023
364,4	0,023
364,9	0,023
365,3	0,023
365,8	0,024
366,3	0,024
366,7	0,024
367,2	0,023
367,6	0,024
368,1	0,023
368,5	0,023
369	0,023
369,5	0,022
369,9	0,023
370,4	0,022
370,8	0,022
371,3	0,021
371,7	0,021
372,2	0,021
372,7	0,021
373,1	0,021
373,6	0,021
374	0,022
374,5	0,022
374,9	0,021
375,4	0,021
375,9	0,021
376,3	0,02
376,8	0,02
377,2	0,02
377,7	0,02
378,2	0,02
378,6	0,021
379,1	0,021
379,5	0,021
380	0,021
380,4	0,021
380,9	0,021
381,4	0,02
381,8	0,02
382,3	0,02
382,7	0,019
383,2	0,019
383,6	0,019
384,1	0,019
384,6	0,019
385	0,019
385,5	0,019
385,9	0,019
386,4	0,019
386,8	0,019
387,3	0,018
387,7	0,018
388,2	0,018
388,7	0,018
389,1	0,018
389,6	0,018
390	0,018
390,5	0,018
390,9	0,018
391,4	0,018
391,9	0,017
392,3	0,017
392,8	0,017
393,2	0,017
393,7	0,017
394,1	0,017
394,6	0,017
395,1	0,017
395,5	0,017
396	0,017
396,4	0,017
396,9	0,017
397,3	0,017
397,8	0,017
398,2	0,016
398,7	0,017
399,2	0,016
399,6	0,016
400,1	0,016
400,5	0,016
401	0,016
401,4	0,016
401,9	0,016
402,4	0,017
402,8	0,016
403,3	0,017
403,7	0,016
404,2	0,016
404,6	0,016
405,1	0,016
405,5	0,015
406	0,015
406,5	0,015
406,9	0,015
407,4	0,015
407,8	0,015
408,3	0,015
408,7	0,015
409,2	0,015
409,6	0,015
410,1	0,015
410,6	0,015
411	0,015
411,5	0,015
411,9	0,016
412,4	0,015
412,8	0,015
413,3	0,015
413,7	0,016
414,2	0,015
414,7	0,015
415,1	0,015
415,6	0,015
416	0,015
416,5	0,015
416,9	0,014
417,4	0,014
417,8	0,014
418,3	0,014
418,8	0,014
419,2	0,014
419,7	0,014
420,1	0,014
420,6	0,014
421	0,014
421,5	0,014
421,9	0,014
422,4	0,014
422,8	0,014
423,3	0,014
423,8	0,013
424,2	0,013
424,7	0,013
425,1	0,014
425,6	0,014
426	0,014
426,5	0,014
426,9	0,013
427,4	0,014
427,9	0,013
428,3	0,014
428,8	0,013
429,2	0,013
429,7	0,013
430,1	0,013
430,6	0,012
431	0,012
431,5	0,012
431,9	0,012
432,4	0,013
432,8	0,013
433,3	0,013
433,8	0,013
434,2	0,013
434,7	0,013
435,1	0,013
435,6	0,013
436	0,013
436,5	0,014
436,9	0,014
437,4	0,014
437,8	0,014
438,3	0,014
438,8	0,014
439,2	0,014
439,7	0,014
440,1	0,013
440,6	0,012
441	0,012
441,5	0,012
441,9	0,012
442,4	0,012
442,8	0,012
443,3	0,012
443,7	0,012
444,2	0,012
444,7	0,012
445,1	0,013
445,6	0,013
446	0,012
446,5	0,012
446,9	0,013
447,4	0,012
447,8	0,013
448,3	0,012
448,7	0,012
449,2	0,012
449,6	0,012
450,1	0,012
450,6	0,012
451	0,012
451,5	0,012
451,9	0,012
452,4	0,012
452,8	0,012
453,3	0,012
453,7	0,012
454,2	0,012
454,6	0,012
455,1	0,012
455,5	0,012
456	0,012
456,4	0,012
456,9	0,012
457,3	0,012
457,8	0,012
458,3	0,011
458,7	0,011
459,2	0,011
459,6	0,011
460,1	0,011
460,5	0,011
461	0,011
461,4	0,011
461,9	0,011
462,3	0,011
462,8	0,011
463,2	0,011
463,7	0,011
464,1	0,011
464,6	0,011
465	0,01
465,5	0,01
466	0,01
466,4	0,01
466,9	0,01
467,3	0,01
467,8	0,01
468,2	0,01
468,7	0,01
469,1	0,01
469,6	0,011
470	0,01
470,5	0,01
470,9	0,01
471,4	0,011
471,8	0,011
472,3	0,011
472,7	0,011
473,2	0,011
473,6	0,011
474,1	0,011
474,5	0,01
475	0,011
475,4	0,01
475,9	0,01
476,4	0,01
476,8	0,01
477,3	0,01
477,7	0,01
478,2	0,011
478,6	0,011
479,1	0,011
479,5	0,011
480	0,011
480,4	0,011
480,9	0,011
481,3	0,01
481,8	0,01
482,2	0,01
482,7	0,011
483,1	0,011
483,6	0,013
484	0,013
484,5	0,012
484,9	0,011
485,4	0,01
485,8	0,01
486,3	0,009
486,7	0,009
487,2	0,008
487,6	0,008
488,1	0,009
488,5	0,01
489	0,01
489,4	0,01
489,9	0,01
490,4	0,009
490,8	0,01
491,3	0,009
491,7	0,009
492,2	0,01
492,6	0,01
493,1	0,01
493,5	0,01
494	0,01
494,4	0,01
494,9	0,01
495,3	0,009
495,8	0,009
496,2	0,009
496,7	0,009
497,1	0,009
497,6	0,009
498	0,009
498,5	0,009
498,9	0,009
499,4	0,009
499,8	0,009
500,3	0,008
500,7	0,008
501,2	0,008
501,6	0,008
502,1	0,008
502,5	0,008
503	0,008
503,4	0,008
503,9	0,008
504,3	0,009
504,8	0,009
505,2	0,009
505,7	0,009
506,1	0,01
506,6	0,01
507	0,01
507,5	0,01
507,9	0,01
508,4	0,01
508,8	0,01
509,3	0,01
509,7	0,01
510,2	0,01
510,6	0,01
511,1	0,01
511,5	0,009
512	0,009
512,4	0,01
512,9	0,009
513,3	0,009
513,8	0,009
514,2	0,009
514,7	0,009
515,1	0,009
515,6	0,008
516	0,009
516,5	0,009
516,9	0,008
517,4	0,009
517,8	0,009
518,3	0,009
518,7	0,009
519,2	0,009
519,6	0,009
520,1	0,01
520,5	0,009
521	0,009
521,4	0,009
521,9	0,009
522,3	0,008
522,8	0,008
523,2	0,008
523,7	0,008
524,1	0,008
524,6	0,008
525	0,008
525,5	0,008
525,9	0,008
526,4	0,007
526,8	0,008
527,3	0,008
527,7	0,008
528,2	0,008
528,6	0,009
529,1	0,008
529,5	0,009
530	0,008
530,4	0,008
530,9	0,008
531,3	0,008
531,8	0,008
532,2	0,008
532,6	0,008
533,1	0,008
533,5	0,007
534	0,007
534,4	0,008
534,9	0,007
535,3	0,007
535,8	0,007
536,2	0,008
536,7	0,008
537,1	0,008
537,6	0,007
538	0,007
538,5	0,007
538,9	0,008
539,4	0,007
539,8	0,007
540,3	0,007
540,7	0,007
541,2	0,007
541,6	0,006
542,1	0,006
542,5	0,006
543	0,006
543,4	0,006
543,9	0,006
544,3	0,006
544,8	0,006
545,2	0,006
545,7	0,007
546,1	0,007
546,5	0,007
547	0,007
547,4	0,007
547,9	0,007
548,3	0,006
548,8	0,006
549,2	0,005
549,7	0,005
550,1	0,005
550,6	0,005
551	0,006
551,5	0,006
551,9	0,007
552,4	0,007
552,8	0,006
553,3	0,006
553,7	0,006
554,2	0,006
554,6	0,006
555,1	0,006
555,5	0,006
555,9	0,006
556,4	0,006
556,8	0,006
557,3	0,006
557,7	0,007
558,2	0,007
558,6	0,007
559,1	0,007
559,5	0,007
560	0,007
560,4	0,007
560,9	0,006
561,3	0,006
561,8	0,006
562,2	0,006
562,7	0,006
563,1	0,006
563,6	0,006
564	0,005
564,4	0,006
564,9	0,006
565,3	0,006
565,8	0,006
566,2	0,006
566,7	0,006
567,1	0,007
567,6	0,007
568	0,006
568,5	0,006
568,9	0,006
569,4	0,006
569,8	0,006
570,3	0,006
570,7	0,005
571,1	0,005
571,6	0,006
572	0,006
572,5	0,006
572,9	0,006
573,4	0,005
573,8	0,005
574,3	0,005
574,7	0,005
575,2	0,005
575,6	0,006
576,1	0,005
576,5	0,005
576,9	0,005
577,4	0,005
577,8	0,005
578,3	0,005
578,7	0,004
579,2	0,005
579,6	0,005
580,1	0,005
580,5	0,005
581	0,004
581,4	0,004
581,9	0,004
582,3	0,004
582,7	0,004
583,2	0,004
583,6	0,004
584,1	0,004
584,5	0,005
585	0,005
585,4	0,005
585,9	0,005
586,3	0,005
586,8	0,005
587,2	0,005
587,6	0,005
588,1	0,005
588,5	0,005
589	0,005
589,4	0,005
589,9	0,006
590,3	0,006
590,8	0,006
591,2	0,006
591,7	0,006
592,1	0,005
592,5	0,005
593	0,004
593,4	0,004
593,9	0,004
594,3	0,004
594,8	0,004
595,2	0,004
595,7	0,004
596,1	0,005
596,6	0,005
597	0,005
597,4	0,005
597,9	0,005
598,3	0,005
598,8	0,004
599,2	0,004
599,7	0,005
600,1	0,004
600,6	0,004
601	0,004
601,4	0,004
601,9	0,004
602,3	0,004
602,8	0,004
603,2	0,003
603,7	0,004
604,1	0,004
604,6	0,003
605	0,004
605,4	0,004
605,9	0,004
606,3	0,004
606,8	0,004
607,2	0,004
607,7	0,005
608,1	0,005
608,6	0,005
609	0,005
609,4	0,005
609,9	0,005
610,3	0,005
610,8	0,005
611,2	0,005
611,7	0,004
612,1	0,004
612,6	0,004
613	0,004
613,4	0,004
613,9	0,004
614,3	0,004
614,8	0,004
615,2	0,004
615,7	0,004
616,1	0,004
616,6	0,004
617	0,005
617,4	0,005
617,9	0,005
618,3	0,004
618,8	0,004
619,2	0,004
619,7	0,004
620,1	0,004
620,5	0,003
621	0,003
621,4	0,003
621,9	0,004
622,3	0,003
622,8	0,003
623,2	0,003
623,6	0,003
624,1	0,003
624,5	0,003
625	0,003
625,4	0,003
625,9	0,003
626,3	0,003
626,8	0,003
627,2	0,003
627,6	0,003
628,1	0,003
628,5	0,003
629	0,003
629,4	0,003
629,9	0,003
630,3	0,003
630,7	0,003
631,2	0,003
631,6	0,003
632,1	0,003
632,5	0,004
633	0,004
633,4	0,004
633,8	0,004
634,3	0,004
634,7	0,004
635,2	0,004
635,6	0,003
636,1	0,003
636,5	0,003
636,9	0,003
637,4	0,003
637,8	0,003
638,3	0,003
638,7	0,003
639,2	0,003
639,6	0,004
640	0,004
640,5	0,004
640,9	0,004
641,4	0,004
641,8	0,003
642,2	0,003
642,7	0,002
643,1	0,002
643,6	0,002
644	0,002
644,5	0,002
644,9	0,003
645,3	0,003
645,8	0,003
646,2	0,004
646,7	0,004
647,1	0,004
647,6	0,004
648	0,004
648,4	0,004
648,9	0,004
649,3	0,003
649,8	0,004
650,2	0,004
650,6	0,003
651,1	0,003
651,5	0,003
652	0,004
652,4	0,004
652,9	0,005
653,3	0,008
653,7	0,013
654,2	0,009
654,6	0,007
655,1	0,006
655,5	0,004
655,9	0,004
656,4	0,003
656,8	-0
657,3	-0
657,7	0
658,2	0
658,6	0,003
659	0,003
659,5	0,003
659,9	0,003
660,4	0,003
660,8	0,003
661,2	0,003
661,7	0,003
662,1	0,003
662,6	0,004
663	0,003
663,4	0,003
663,9	0,003
664,3	0,003
664,8	0,003
665,2	0,003
665,6	0,002
666,1	0,003
666,5	0,003
667	0,002
667,4	0,002
667,9	0,002
668,3	0,002
668,7	0,002
669,2	0,002
669,6	0,003
670,1	0,003
670,5	0,003
670,9	0,003
671,4	0,003
671,8	0,003
672,3	0,003
672,7	0,003
673,1	0,003
673,6	0,002
674	0,002
674,5	0,003
674,9	0,003
675,3	0,003
675,8	0,003
676,2	0,002
676,7	0,003
677,1	0,002
677,5	0,003
678	0,002
678,4	0,003
678,9	0,002
679,3	0,003
679,7	0,003
680,2	0,003
680,6	0,003
681,1	0,003
681,5	0,003
681,9	0,003
682,4	0,003
682,8	0,003
683,3	0,003
683,7	0,003
684,1	0,003
684,6	0,003
685	0,002
685,5	0,002
685,9	0,002
686,3	0,002
686,8	0,002
687,2	0,002
687,7	0,003
688,1	0,003
688,5	0,003
689	0,003
689,4	0,004
689,9	0,004
690,3	0,004
690,7	0,003
691,2	0,003
691,6	0,003
692	0,003
692,5	0,002
692,9	0,002
693,4	0,002
693,8	0,002
694,2	0,002
694,7	0,002
695,1	0,003
695,6	0,003
696	0,003
696,4	0,003
696,9	0,003
697,3	0,003
697,8	0,003
698,2	0,002
698,6	0,002
699,1	0,002
699,5	0,002
699,9	0,002
700,4	0,002
700,8	0,002
701,3	0,002
701,7	0,002
702,1	0,002
702,6	0,003
703	0,002
703,5	0,002
703,9	0,002
704,3	0,002
704,8	0,002
705,2	0,002
705,6	0,002
706,1	0,003
706,5	0,003
707	0,003
707,4	0,003
707,8	0,003
708,3	0,003
708,7	0,003
709,2	0,003
709,6	0,002
710	0,002
710,5	0,003
710,9	0,002
711,3	0,002
711,8	0,002
712,2	0,002
712,7	0,002
713,1	0,002
713,5	0,002
714	0,002
714,4	0,002
714,8	0,002
715,3	0,002
715,7	0,002
716,2	0,002
716,6	0,002
717	0,002
717,5	0,002
717,9	0,003
718,3	0,003
718,8	0,003
719,2	0,003
719,7	0,003
720,1	0,003
720,5	0,003
721	0,003
721,4	0,003
721,8	0,003
722,3	0,003
722,7	0,003
723,2	0,003
723,6	0,003
724	0,003
724,5	0,003
724,9	0,003
725,3	0,003
725,8	0,003
726,2	0,003
726,7	0,003
727,1	0,003
727,5	0,003
728	0,003
728,4	0,003
728,8	0,003
729,3	0,003
729,7	0,003
730,1	0,003
730,6	0,002
731	0,002
731,5	0,003
731,9	0,003
732,3	0,002
732,8	0,002
733,2	0,002
733,6	0,002
734,1	0,002
734,5	0,001
734,9	0,002
735,4	0,002
735,8	0,002
736,3	0,002
736,7	0,002
737,1	0,002
737,6	0,002
738	0,002
738,4	0,002
738,9	0,002
739,3	0,001
739,7	0,001
740,2	0,001
740,6	0,001
741,1	0,001
741,5	0,001
741,9	0,001
742,4	0,002
742,8	0,002
743,2	0,002
743,7	0,002
744,1	0,002
744,5	0,003
745	0,002
745,4	0,002
745,8	0,002
746,3	0,002
746,7	0,002
747,2	0,002
747,6	0,002
748	0,002
748,5	0,003
748,9	0,003
749,3	0,003
749,8	0,003
750,2	0,003
750,6	0,003
751,1	0,002
751,5	0,002
751,9	0,002
752,4	0,002
752,8	0,001
753,3	0,001
753,7	0,001
754,1	0,001
754,6	0,002
755	0,002
755,4	0,002
755,9	0,003
756,3	0,003
756,7	0,003
757,2	0,003
757,6	0,003
758	0,003
758,5	0,003
758,9	0,002
759,3	0,002
759,8	0,002
760,2	0,001
760,6	0,001
761,1	0,001
761,5	0,001
761,9	0,001
762,4	0,002
762,8	0,002
763,3	0,002
763,7	0,002
764,1	0,003
764,6	0,003
765	0,003
765,4	0,003
765,9	0,003
766,3	0,003
766,7	0,003
767,2	0,004
767,6	0,004
768	0,004
768,5	0,004
768,9	0,004
769,3	0,004
769,8	0,004
770,2	0,003
770,6	0,003
771,1	0,003
771,5	0,003
771,9	0,003
772,4	0,003
772,8	0,002
773,2	0,003
773,7	0,002
774,1	0,002
774,5	0,002
775	0,002
775,4	0,002
775,8	0,002
776,3	0,002
776,7	0,002
777,1	0,002
777,6	0,002
778	0,002
778,4	0,002
778,9	0,002
779,3	0,002
779,7	0,002
780,2	0,002
780,6	0,002
781	0,002
781,5	0,003
781,9	0,003
782,3	0,003
782,8	0,003
783,2	0,002
783,6	0,003
784,1	0,003
784,5	0,003
784,9	0,002
785,4	0,002
785,8	0,003
786,2	0,003
786,7	0,003
787,1	0,003
787,5	0,002
788	0,002
788,4	0,002
788,8	0,002
789,3	0,001
789,7	0,001
790,1	0,002
790,6	0,002
791	0,002
791,4	0,003
791,9	0,003
792,3	0,003
792,7	0,003
793,2	0,003
793,6	0,003
794	0,003
794,5	0,003
794,9	0,003
795,3	0,003
795,8	0,003
796,2	0,003
796,6	0,003
797,1	0,002
797,5	0,002
797,9	0,002
798,4	0,002
798,8	0,002
799,2	0,002
799,7	0,002
800,1	0,002
800,5	0,001
801	0,002
801,4	0,001
801,8	0,002
802,2	0,002
802,7	0,002
803,1	0,002
803,5	0,002
804	0,002
804,4	0,002
804,8	0,002
805,3	0,002
805,7	0,003
806,1	0,003
806,6	0,003
807	0,002
807,4	0,002
807,9	0,002
808,3	0,002
808,7	0,002
809,2	0,002
809,6	0,003
810	0,003
810,4	0,003
810,9	0,002
811,3	0,003
811,7	0,003
812,2	0,003
812,6	0,003
813	0,003
813,5	0,003
813,9	0,003
814,3	0,003
814,8	0,003
815,2	0,003
815,6	0,003
816,1	0,003
816,5	0,003
816,9	0,004
817,3	0,003
817,8	0,003
818,2	0,003
818,6	0,003
819,1	0,003
819,5	0,003
819,9	0,003
820,4	0,003
820,8	0,003
821,2	0,003
821,7	0,003
822,1	0,002
822,5	0,002
822,9	0,002
823,4	0,002
823,8	0,002
824,2	0,001
824,7	0,001
825,1	0,001
825,5	0,002
826	0,002
826,4	0,002
826,8	0,002
827,3	0,002
827,7	0,003
828,1	0,002
828,5	0,002
829	0,002
829,4	0,003
829,8	0,003
830,3	0,003
830,7	0,002
831,1	0,002
831,6	0,002
832	0,002
832,4	0,002
832,8	0,002
833,3	0,002
833,7	0,002
834,1	0,002
834,6	0,002
835	0,003
835,4	0,003
835,8	0,003
836,3	0,003
836,7	0,003
837,1	0,003
837,6	0,002
838	0,002
838,4	0,001
838,9	0,001
839,3	0,001
839,7	0,001
840,1	0,001
840,6	0,001
841	0,002
841,4	0,002
841,9	0,003
842,3	0,003
842,7	0,003
843,1	0,003
843,6	0,004
844	0,004
844,4	0,004
844,9	0,004
845,3	0,003
845,7	0,003
846,2	0,003
846,6	0,003
847	0,003
847,4	0,003
847,9	0,003
848,3	0,003
848,7	0,003
849,2	0,003
849,6	0,003
850	0,003
850,4	0,003
850,9	0,003
851,3	0,003
851,7	0,002
852,2	0,002
852,6	0,001
853	0,001
853,4	0,001
853,9	0,001
854,3	0,001
854,7	0,002
855,2	0,002
855,6	0,002
856	0,002
856,4	0,002
856,9	0,002
857,3	0,002
857,7	0,003
858,2	0,002
858,6	0,003
859	0,003
859,4	0,003
859,9	0,003
860,3	0,004
860,7	0,003
861,1	0,003
861,6	0,004
862	0,004
862,4	0,004
862,9	0,004
863,3	0,003
863,7	0,003
864,1	0,003
864,6	0,003
865	0,003
865,4	0,002
865,9	0,003
866,3	0,003
866,7	0,003
867,1	0,003
867,6	0,003
868	0,003
868,4	0,003
868,8	0,002
869,3	0,002
869,7	0,002
870,1	0,002
870,6	0,002
871	0,002
871,4	0,002
871,8	0,002
872,3	0,002
872,7	0,002
873,1	0,003
873,5	0,003
874	0,003
874,4	0,003
874,8	0,003
875,3	0,003
875,7	0,003
876,1	0,003
876,5	0,003
877	0,003
877,4	0,003
877,8	0,003
878,2	0,002
878,7	0,002
879,1	0,002
879,5	0,002
879,9	0,002
880,4	0,002
880,8	0,002
881,2	0,003
881,7	0,003
882,1	0,003
882,5	0,003
882,9	0,003
883,4	0,003
883,8	0,003
884,2	0,003
884,6	0,003
885,1	0,002
885,5	0,002
885,9	0,002
886,3	0,002
886,8	0,003
887,2	0,003
887,6	0,003
888	0,003
888,5	0,002
888,9	0,002
889,3	0,002
889,8	0,002
890,2	0,002
890,6	0,002
891	0,002
891,5	0,002
891,9	0,003
892,3	0,003
892,7	0,003
893,2	0,003
893,6	0,003
894	0,003
894,4	0,003
894,9	0,003
895,3	0,003
895,7	0,003
896,1	0,003
896,6	0,003
897	0,003
897,4	0,003
897,8	0,003
898,3	0,002
898,7	0,003
899,1	0,003
899,5	0,003
900	0,003
900,4	0,003
900,8	0,003
901,2	0,003
901,7	0,003
902,1	0,003
902,5	0,002
902,9	0,002
903,4	0,002
903,8	0,003
904,2	0,002
904,6	0,002
905,1	0,002
905,5	0,003
905,9	0,003
906,3	0,003
906,8	0,003
907,2	0,003
907,6	0,003
908	0,003
908,5	0,002
908,9	0,002
909,3	0,002
909,7	0,002
910,2	0,002
910,6	0,002
911	0,002
911,4	0,002
911,9	0,002
912,3	0,002
912,7	0,002
913,1	0,002
913,6	0,002
914	0,002
914,4	0,002
914,8	0,002
915,3	0,002
915,7	0,002
916,1	0,002
916,5	0,003
916,9	0,003
917,4	0,003
917,8	0,002
918,2	0,002
918,6	0,001
919,1	0,001
919,5	0,001
919,9	0,001
920,3	0,001
920,8	0,002
921,2	0,002
921,6	0,002
922	0,003
922,5	0,003
922,9	0,002
923,3	0,002
923,7	0,002
924,2	0,003
924,6	0,002
925	0,003
925,4	0,003
925,8	0,003
926,3	0,003
926,7	0,002
927,1	0,002
927,5	0,002
928	0,002
928,4	0,001
928,8	0,001
929,2	0,001
929,7	0,001
930,1	0,001
930,5	0,002
930,9	0,002
931,3	0,002
931,8	0,002
932,2	0,002
932,6	0,002
933	0,002
933,5	0,001
933,9	0,001
934,3	0,001
934,7	0,001
935,2	0,002
935,6	0,002
936	0,001
936,4	0,002
936,8	0,002
937,3	0,002
937,7	0,001
938,1	0,001
938,5	0,002
939	0,001
939,4	0,001
939,8	0,001
940,2	0,002
940,6	0,002
941,1	0,002
941,5	0,001
941,9	0,001
942,3	0,001
942,8	0,001
943,2	0
943,6	0
944	0
944,4	0,001
944,9	0,002
945,3	0,002
945,7	0,002
946,1	0,003
946,6	0,003
947	0,003
947,4	0,003
947,8	0,004
948,2	0,004
948,7	0,004
949,1	0,004
949,5	0,004
949,9	0,004
950,3	0,003
950,8	0,003
951,2	0,003
951,6	0,003
952	0,003
952,5	0,003
952,9	0,003
953,3	0,002
953,7	0,003
954,1	0,002
954,6	0,002
955	0,002
955,4	0,002
955,8	0,002
956,2	0,002
956,7	0,001
957,1	0,001
957,5	0,001
957,9	0,001
958,3	0
958,8	0
959,2	-0
959,6	0
960	0
960,5	0,001
960,9	0,001
961,3	0,001
961,7	0,002
962,1	0,002
962,6	0,002
963	0,002
963,4	0,002
963,8	0,003
964,2	0,003
964,7	0,003
965,1	0,003
965,5	0,002
965,9	0,002
966,3	0,002
966,8	0,002
967,2	0,001
967,6	0,001
968	0,001
968,4	0,002
968,9	0,002
969,3	0,001
969,7	0,002
970,1	0,002
970,5	0,002
971	0,002
971,4	0,002
971,8	0,002
972,2	0,002
972,6	0,003
973,1	0,002
973,5	0,002
973,9	0,002
974,3	0,002
974,7	0,002
975,2	0,001
975,6	0,001
976	0,001
976,4	0,002
976,8	0,002
977,3	0,003
977,7	0,003
978,1	0,003
978,5	0,003
978,9	0,003
979,4	0,003
979,8	0,003
980,2	0,003
980,6	0,004
981	0,004
981,5	0,004
981,9	0,004
982,3	0,003
982,7	0,003
983,1	0,003
983,6	0,002
984	0,002
984,4	0,002
984,8	0,002
985,2	0,002
985,6	0,003
986,1	0,002
986,5	0,003
986,9	0,003
987,3	0,004
987,7	0,003
988,2	0,004
988,6	0,004
989	0,004
989,4	0,004
989,8	0,004
990,3	0,004
990,7	0,003
991,1	0,004
991,5	0,004
991,9	0,005
992,3	0,005
992,8	0,005
993,2	0,004
993,6	0,005
994	0,004
994,4	0,004
994,9	0,003
995,3	0,003
995,7	0,003
996,1	0,003
996,5	0,003
996,9	0,004
997,4	0,004
997,8	0,004
998,2	0,005
998,6	0,005
999	0,005
999,5	0,005
999,9	0,005
1000,3	0,005
1000,7	0,005
1001,1	0,005
1001,5	0,005
1002	0,004
1002,4	0,004
1002,8	0,004
1003,2	0,004
1003,6	0,003
1004	0,003
1004,5	0,003
1004,9	0,003
1005,3	0,004
1005,7	0,004
1006,1	0,004
1006,6	0,004
1007	0,004
1007,4	0,004
1007,8	0,004
1008,2	0,004
1008,6	0,004
1009,1	0,003
1009,5	0,002
1009,9	0,002
1010,3	0,002
1010,7	0,001
1011,1	0,001
1011,6	0,002
1012	0,002
1012,4	0,002
1012,8	0,003
1013,2	0,004
1013,6	0,005
1014,1	0,005
1014,5	0,004
1014,9	0,003
1015,3	0,004
1015,7	0,003
1016,1	0,003
1016,6	0,003
1017	0,004
1017,4	0,004
1017,8	0,005
1018,2	0,005
1018,6	0,005
1019,1	0,006
1019,5	0,006
1019,9	0,005
1020,3	0,005
1020,7	0,005
1021,1	0,005
1021,6	0,004
1022	0,004
1022,4	0,003
1022,8	0,004
1023,2	0,005
1023,6	0,005
1024,1	0,005
1024,5	0,005
1024,9	0,005
1025,3	0,006
1025,7	0,005
1026,1	0,005
1026,6	0,005
1027	0,005
1027,4	0,005
1027,8	0,006
1028,2	0,006
1028,6	0,006
1029	0,006
1029,5	0,006
1029,9	0,006
1030,3	0,006
1030,7	0,007
1031,1	0,007
1031,5	0,007
1032	0,007
1032,4	0,007
1032,8	0,007
1033,2	0,006
1033,6	0,006
1034	0,006
1034,4	0,005
1034,9	0,006
1035,3	0,005
1035,7	0,006
1036,1	0,006
1036,5	0,006
1036,9	0,007
1037,4	0,007
1037,8	0,007
1038,2	0,007
1038,6	0,007
1039	0,007
1039,4	0,007
1039,8	0,006
1040,3	0,007
1040,7	0,006
1041,1	0,007
1041,5	0,007
1041,9	0,007
1042,3	0,007
1042,7	0,007
1043,2	0,007
1043,6	0,007
1044	0,007
1044,4	0,006
1044,8	0,006
1045,2	0,006
1045,6	0,006
1046,1	0,006
1046,5	0,006
1046,9	0,005
1047,3	0,005
1047,7	0,005
1048,1	0,005
1048,5	0,006
1049	0,005
1049,4	0,006
1049,8	0,006
1050,2	0,006
1050,6	0,006
1051	0,006
1051,4	0,005
1051,9	0,006
1052,3	0,005
1052,7	0,005
1053,1	0,005
1053,5	0,005
1053,9	0,004
1054,3	0,004
1054,8	0,004
1055,2	0,004
1055,6	0,004
1056	0,005
1056,4	0,005
1056,8	0,006
1057,2	0,007
1057,6	0,006
1058,1	0,006
1058,5	0,006
1058,9	0,007
1059,3	0,007
1059,7	0,007
1060,1	0,007
1060,5	0,007
1061	0,007
1061,4	0,006
1061,8	0,006
1062,2	0,006
1062,6	0,006
1063	0,006
1063,4	0,007
1063,8	0,008
1064,3	0,007
1064,7	0,007
1065,1	0,007
1065,5	0,008
1065,9	0,008
1066,3	0,007
1066,7	0,007
1067,1	0,007
1067,6	0,006
1068	0,006
1068,4	0,006
1068,8	0,006
1069,2	0,006
1069,6	0,006
1070	0,006
1070,4	0,007
1070,9	0,007
1071,3	0,005
1071,7	0,006
1072,1	0,006
1072,5	0,006
1072,9	0,007
1073,3	0,007
1073,7	0,007
1074,2	0,009
1074,6	0,009
1075	0,009
1075,4	0,009
1075,8	0,009
1076,2	0,009
1076,6	0,008
1077	0,007
1077,5	0,007
1077,9	0,007
1078,3	0,005
1078,7	0,005
1079,1	0,006
1079,5	0,007
1079,9	0,007
1080,3	0,008
1080,7	0,008
1081,2	0,009
1081,6	0,008
1082	0,009
1082,4	0,009
1082,8	0,009
1083,2	0,008
1083,6	0,009
1084	0,011
1084,5	0,012
1084,9	0,011
1085,3	0,01
1085,7	0,01
1086,1	0,01
1086,5	0,012
1086,9	0,013
1087,3	0,013
1087,7	0,016
1088,2	0,018
1088,6	0,017
1089	0,019
1089,4	0,015
1089,8	0,014
1090,2	0,013
1090,6	0,012
1091	0,013
1091,4	0,016
1091,9	0,016
1092,3	0,018
1092,7	0,019
1093,1	0,022
1093,5	0,024
1093,9	0,023
1094,3	0,024
1094,7	0,025
1095,1	0,026
1095,5	0,026
1096	0,03
1096,4	0,03
1096,8	0,031
1097,2	0,031
1097,6	0,029
1098	0,028
1098,4	0,03
1098,8	0,027
1099,2	0,023
1099,6	0,027
1100,1	0,026
1100,5	0,028
1100,9	0,026
1101,3	0,026
1101,7	0,031
1102,1	0,033
1102,5	0,039
1102,9	0,05
1103,3	0,058
1103,7	0,065
1104,2	0,064
1104,6	0,07
1105	0,079
1105,4	0,071
1105,8	0,066
1106,2	0,063
1106,6	0,077
1107	0,11
1107,4	0,099
1107,8	0,105
1108,3	-0
