Data from Absorbance_035.txt Node
Date: Fri Nov 13 13:25:09 MSK 2020
User: vat
Spectrometer: MAYP114033
Trigger mode: 0
Integration Time (sec): 8,000000E-3
Scans to average: 10
Electric dark correction enabled: true
Nonlinearity correction enabled: false
Boxcar width: 3
XAxis mode: Wavelengths
Number of Pixels in Spectrum: 2068
>>>>>Begin Spectral Data<<<<<
199,4	-0
199,9	-0,005
200,4	-0,041
200,8	0,035
201,3	0,064
201,8	0,062
202,2	0,059
202,7	0,062
203,2	0,078
203,6	0,072
204,1	0,063
204,6	0,048
205	0,029
205,5	0,028
206	0,014
206,4	0,007
206,9	0,024
207,4	0,027
207,8	0,042
208,3	0,053
208,8	0,052
209,2	0,05
209,7	0,069
210,2	0,077
210,6	0,077
211,1	0,078
211,5	0,074
212	0,094
212,5	0,102
212,9	0,102
213,4	0,092
213,9	0,088
214,3	0,068
214,8	0,095
215,3	0,082
215,7	0,088
216,2	0,08
216,7	0,084
217,1	0,078
217,6	0,079
218,1	0,065
218,5	0,076
219	0,075
219,5	0,076
219,9	0,064
220,4	0,069
220,9	0,065
221,3	0,071
221,8	0,078
222,3	0,074
222,7	0,087
223,2	0,096
223,6	0,094
224,1	0,097
224,6	0,089
225	0,081
225,5	0,091
226	0,079
226,4	0,082
226,9	0,076
227,4	0,096
227,8	0,097
228,3	0,099
228,8	0,109
229,2	0,111
229,7	0,111
230,2	0,125
230,6	0,119
231,1	0,119
231,5	0,1
232	0,086
232,5	0,085
232,9	0,095
233,4	0,083
233,9	0,094
234,3	0,1
234,8	0,125
235,3	0,132
235,7	0,115
236,2	0,107
236,7	0,118
237,1	0,121
237,6	0,118
238,1	0,104
238,5	0,09
239	0,109
239,4	0,12
239,9	0,126
240,4	0,116
240,8	0,12
241,3	0,134
241,8	0,139
242,2	0,135
242,7	0,126
243,2	0,131
243,6	0,146
244,1	0,153
244,6	0,15
245	0,167
245,5	0,188
245,9	0,182
246,4	0,182
246,9	0,192
247,3	0,187
247,8	0,194
248,3	0,197
248,7	0,196
249,2	0,215
249,7	0,216
250,1	0,207
250,6	0,206
251	0,21
251,5	0,208
252	0,202
252,4	0,2
252,9	0,201
253,4	0,204
253,8	0,208
254,3	0,213
254,8	0,218
255,2	0,225
255,7	0,231
256,1	0,239
256,6	0,245
257,1	0,251
257,5	0,257
258	0,264
258,5	0,272
258,9	0,281
259,4	0,289
259,9	0,297
260,3	0,305
260,8	0,315
261,2	0,324
261,7	0,333
262,2	0,344
262,6	0,352
263,1	0,363
263,6	0,374
264	0,384
264,5	0,395
264,9	0,407
265,4	0,417
265,9	0,429
266,3	0,439
266,8	0,451
267,3	0,461
267,7	0,472
268,2	0,483
268,7	0,494
269,1	0,505
269,6	0,517
270	0,529
270,5	0,54
271	0,552
271,4	0,562
271,9	0,573
272,4	0,584
272,8	0,593
273,3	0,603
273,7	0,613
274,2	0,622
274,7	0,631
275,1	0,639
275,6	0,647
276,1	0,656
276,5	0,664
277	0,671
277,4	0,678
277,9	0,687
278,4	0,693
278,8	0,7
279,3	0,705
279,8	0,71
280,2	0,715
280,7	0,717
281,1	0,719
281,6	0,722
282,1	0,724
282,5	0,724
283	0,724
283,4	0,724
283,9	0,724
284,4	0,722
284,8	0,72
285,3	0,716
285,8	0,713
286,2	0,708
286,7	0,703
287,1	0,698
287,6	0,691
288,1	0,684
288,5	0,676
289	0,668
289,5	0,659
289,9	0,649
290,4	0,638
290,8	0,628
291,3	0,617
291,8	0,605
292,2	0,593
292,7	0,579
293,1	0,567
293,6	0,554
294,1	0,54
294,5	0,525
295	0,511
295,5	0,497
295,9	0,482
296,4	0,466
296,8	0,45
297,3	0,435
297,8	0,42
298,2	0,405
298,7	0,39
299,1	0,374
299,6	0,36
300,1	0,346
300,5	0,332
301	0,317
301,5	0,303
301,9	0,29
302,4	0,277
302,8	0,264
303,3	0,251
303,8	0,239
304,2	0,227
304,7	0,216
305,1	0,205
305,6	0,194
306,1	0,184
306,5	0,175
307	0,166
307,4	0,156
307,9	0,148
308,4	0,14
308,8	0,132
309,3	0,125
309,8	0,118
310,2	0,111
310,7	0,105
311,1	0,099
311,6	0,094
312,1	0,089
312,5	0,085
313	0,08
313,4	0,076
313,9	0,071
314,4	0,068
314,8	0,064
315,3	0,061
315,7	0,057
316,2	0,054
316,7	0,052
317,1	0,049
317,6	0,047
318	0,045
318,5	0,043
319	0,041
319,4	0,039
319,9	0,037
320,3	0,036
320,8	0,035
321,3	0,034
321,7	0,033
322,2	0,031
322,6	0,031
323,1	0,03
323,6	0,03
324	0,029
324,5	0,028
324,9	0,028
325,4	0,027
325,9	0,026
326,3	0,026
326,8	0,026
327,2	0,025
327,7	0,025
328,2	0,024
328,6	0,023
329,1	0,023
329,5	0,022
330	0,022
330,5	0,021
330,9	0,021
331,4	0,021
331,8	0,021
332,3	0,02
332,8	0,021
333,2	0,02
333,7	0,02
334,1	0,02
334,6	0,02
335,1	0,019
335,5	0,019
336	0,019
336,4	0,019
336,9	0,019
337,4	0,018
337,8	0,019
338,3	0,018
338,7	0,018
339,2	0,019
339,7	0,018
340,1	0,019
340,6	0,018
341	0,018
341,5	0,018
342	0,018
342,4	0,018
342,9	0,018
343,3	0,017
343,8	0,017
344,2	0,017
344,7	0,017
345,2	0,016
345,6	0,017
346,1	0,017
346,5	0,017
347	0,017
347,5	0,017
347,9	0,016
348,4	0,017
348,8	0,016
349,3	0,016
349,8	0,016
350,2	0,016
350,7	0,016
351,1	0,016
351,6	0,015
352	0,015
352,5	0,015
353	0,016
353,4	0,016
353,9	0,015
354,3	0,015
354,8	0,015
355,3	0,015
355,7	0,015
356,2	0,015
356,6	0,014
357,1	0,015
357,5	0,014
358	0,014
358,5	0,014
358,9	0,014
359,4	0,015
359,8	0,015
360,3	0,015
360,8	0,015
361,2	0,015
361,7	0,015
362,1	0,014
362,6	0,014
363	0,014
363,5	0,014
364	0,013
364,4	0,014
364,9	0,013
365,3	0,014
365,8	0,013
366,3	0,013
366,7	0,013
367,2	0,013
367,6	0,013
368,1	0,013
368,5	0,012
369	0,012
369,5	0,012
369,9	0,012
370,4	0,012
370,8	0,012
371,3	0,011
371,7	0,011
372,2	0,011
372,7	0,012
373,1	0,012
373,6	0,012
374	0,012
374,5	0,012
374,9	0,012
375,4	0,012
375,9	0,012
376,3	0,012
376,8	0,012
377,2	0,012
377,7	0,012
378,2	0,012
378,6	0,012
379,1	0,012
379,5	0,011
380	0,011
380,4	0,011
380,9	0,011
381,4	0,011
381,8	0,011
382,3	0,011
382,7	0,011
383,2	0,01
383,6	0,01
384,1	0,011
384,6	0,011
385	0,011
385,5	0,01
385,9	0,01
386,4	0,01
386,8	0,01
387,3	0,01
387,7	0,01
388,2	0,01
388,7	0,01
389,1	0,01
389,6	0,01
390	0,01
390,5	0,01
390,9	0,01
391,4	0,01
391,9	0,01
392,3	0,01
392,8	0,01
393,2	0,01
393,7	0,01
394,1	0,01
394,6	0,01
395,1	0,01
395,5	0,01
396	0,01
396,4	0,009
396,9	0,009
397,3	0,009
397,8	0,008
398,2	0,009
398,7	0,009
399,2	0,009
399,6	0,009
400,1	0,009
400,5	0,009
401	0,009
401,4	0,009
401,9	0,009
402,4	0,008
402,8	0,008
403,3	0,009
403,7	0,009
404,2	0,008
404,6	0,008
405,1	0,008
405,5	0,008
406	0,008
406,5	0,008
406,9	0,008
407,4	0,008
407,8	0,008
408,3	0,008
408,7	0,007
409,2	0,008
409,6	0,008
410,1	0,008
410,6	0,008
411	0,008
411,5	0,008
411,9	0,009
412,4	0,009
412,8	0,009
413,3	0,009
413,7	0,009
414,2	0,008
414,7	0,008
415,1	0,007
415,6	0,007
416	0,007
416,5	0,007
416,9	0,007
417,4	0,007
417,8	0,007
418,3	0,007
418,8	0,007
419,2	0,007
419,7	0,007
420,1	0,007
420,6	0,007
421	0,007
421,5	0,007
421,9	0,007
422,4	0,007
422,8	0,007
423,3	0,007
423,8	0,007
424,2	0,007
424,7	0,007
425,1	0,007
425,6	0,006
426	0,006
426,5	0,006
426,9	0,006
427,4	0,006
427,9	0,006
428,3	0,006
428,8	0,006
429,2	0,006
429,7	0,006
430,1	0,006
430,6	0,005
431	0,005
431,5	0,005
431,9	0,006
432,4	0,006
432,8	0,006
433,3	0,006
433,8	0,006
434,2	0,006
434,7	0,006
435,1	0,006
435,6	0,005
436	0,006
436,5	0,006
436,9	0,006
437,4	0,006
437,8	0,006
438,3	0,006
438,8	0,007
439,2	0,007
439,7	0,007
440,1	0,006
440,6	0,006
441	0,006
441,5	0,006
441,9	0,006
442,4	0,006
442,8	0,006
443,3	0,006
443,7	0,006
444,2	0,005
444,7	0,006
445,1	0,006
445,6	0,005
446	0,005
446,5	0,005
446,9	0,005
447,4	0,005
447,8	0,006
448,3	0,005
448,7	0,006
449,2	0,006
449,6	0,006
450,1	0,006
450,6	0,006
451	0,006
451,5	0,006
451,9	0,006
452,4	0,006
452,8	0,006
453,3	0,005
453,7	0,005
454,2	0,005
454,6	0,005
455,1	0,005
455,5	0,005
456	0,005
456,4	0,005
456,9	0,005
457,3	0,005
457,8	0,005
458,3	0,005
458,7	0,005
459,2	0,005
459,6	0,005
460,1	0,005
460,5	0,005
461	0,005
461,4	0,005
461,9	0,005
462,3	0,005
462,8	0,005
463,2	0,004
463,7	0,004
464,1	0,005
464,6	0,005
465	0,005
465,5	0,004
466	0,004
466,4	0,004
466,9	0,004
467,3	0,004
467,8	0,004
468,2	0,004
468,7	0,005
469,1	0,005
469,6	0,005
470	0,005
470,5	0,005
470,9	0,005
471,4	0,005
471,8	0,004
472,3	0,004
472,7	0,004
473,2	0,004
473,6	0,004
474,1	0,004
474,5	0,004
475	0,004
475,4	0,004
475,9	0,004
476,4	0,004
476,8	0,004
477,3	0,004
477,7	0,005
478,2	0,004
478,6	0,005
479,1	0,004
479,5	0,004
480	0,004
480,4	0,004
480,9	0,004
481,3	0,003
481,8	0,003
482,2	0,003
482,7	0,003
483,1	0,003
483,6	0,004
484	0,004
484,5	0,004
484,9	0,004
485,4	0,004
485,8	0,004
486,3	0,004
486,7	0,003
487,2	0,004
487,6	0,003
488,1	0,003
488,5	0,003
489	0,003
489,4	0,003
489,9	0,003
490,4	0,003
490,8	0,003
491,3	0,003
491,7	0,004
492,2	0,004
492,6	0,003
493,1	0,004
493,5	0,003
494	0,003
494,4	0,003
494,9	0,003
495,3	0,002
495,8	0,002
496,2	0,002
496,7	0,003
497,1	0,002
497,6	0,002
498	0,003
498,5	0,002
498,9	0,003
499,4	0,002
499,8	0,002
500,3	0,002
500,7	0,002
501,2	0,002
501,6	0,002
502,1	0,002
502,5	0,003
503	0,003
503,4	0,003
503,9	0,003
504,3	0,003
504,8	0,003
505,2	0,003
505,7	0,003
506,1	0,003
506,6	0,003
507	0,003
507,5	0,003
507,9	0,003
508,4	0,003
508,8	0,003
509,3	0,003
509,7	0,003
510,2	0,003
510,6	0,004
511,1	0,003
511,5	0,003
512	0,003
512,4	0,003
512,9	0,002
513,3	0,002
513,8	0,002
514,2	0,002
514,7	0,002
515,1	0,002
515,6	0,002
516	0,002
516,5	0,002
516,9	0,002
517,4	0,002
517,8	0,002
518,3	0,002
518,7	0,002
519,2	0,003
519,6	0,002
520,1	0,003
520,5	0,002
521	0,002
521,4	0,002
521,9	0,002
522,3	0,002
522,8	0,002
523,2	0,002
523,7	0,003
524,1	0,002
524,6	0,003
525	0,002
525,5	0,002
525,9	0,003
526,4	0,002
526,8	0,002
527,3	0,002
527,7	0,002
528,2	0,002
528,6	0,003
529,1	0,002
529,5	0,002
530	0,002
530,4	0,002
530,9	0,002
531,3	0,002
531,8	0,002
532,2	0,003
532,6	0,003
533,1	0,003
533,5	0,003
534	0,003
534,4	0,003
534,9	0,003
535,3	0,003
535,8	0,003
536,2	0,003
536,7	0,003
537,1	0,003
537,6	0,003
538	0,002
538,5	0,003
538,9	0,002
539,4	0,002
539,8	0,002
540,3	0,002
540,7	0,002
541,2	0,002
541,6	0,002
542,1	0,003
542,5	0,002
543	0,002
543,4	0,002
543,9	0,002
544,3	0,002
544,8	0,001
545,2	0,001
545,7	0,002
546,1	0,002
546,5	0,002
547	0,002
547,4	0,002
547,9	0,002
548,3	0,002
548,8	0,001
549,2	0,001
549,7	0,001
550,1	0,001
550,6	0,001
551	0,001
551,5	0,001
551,9	0,002
552,4	0,002
552,8	0,002
553,3	0,001
553,7	0,002
554,2	0,002
554,6	0,002
555,1	0,002
555,5	0,002
555,9	0,002
556,4	0,002
556,8	0,002
557,3	0,002
557,7	0,002
558,2	0,001
558,6	0,001
559,1	0,002
559,5	0,002
560	0,002
560,4	0,002
560,9	0,002
561,3	0,002
561,8	0,001
562,2	0,001
562,7	0,001
563,1	0,002
563,6	0,002
564	0,001
564,4	0,002
564,9	0,002
565,3	0,002
565,8	0,002
566,2	0,002
566,7	0,002
567,1	0,002
567,6	0,002
568	0,002
568,5	0,002
568,9	0,001
569,4	0,001
569,8	0,001
570,3	0,001
570,7	0,001
571,1	0,002
571,6	0,002
572	0,002
572,5	0,001
572,9	0,002
573,4	0,001
573,8	0,001
574,3	0,001
574,7	0,001
575,2	0,001
575,6	0,002
576,1	0,002
576,5	0,002
576,9	0,002
577,4	0,002
577,8	0,001
578,3	0,001
578,7	0,001
579,2	0,001
579,6	0,001
580,1	0,001
580,5	0,001
581	0,001
581,4	0,001
581,9	0,001
582,3	0,001
582,7	0,001
583,2	0,001
583,6	0,001
584,1	0,001
584,5	0,001
585	0,001
585,4	0,002
585,9	0,002
586,3	0,001
586,8	0,001
587,2	0,001
587,6	0,001
588,1	0,001
588,5	0,001
589	0,001
589,4	0,001
589,9	0,001
590,3	0,001
590,8	0,001
591,2	0,001
591,7	0,002
592,1	0,001
592,5	0,001
593	0,001
593,4	0,001
593,9	0,001
594,3	0,001
594,8	0,001
595,2	0,001
595,7	0,001
596,1	0,001
596,6	0,001
597	0,001
597,4	0,001
597,9	0,001
598,3	0,001
598,8	0,001
599,2	0,001
599,7	0,001
600,1	0,001
600,6	0,001
601	0,001
601,4	0
601,9	0,001
602,3	0,001
602,8	0
603,2	0
603,7	0,001
604,1	0,001
604,6	0,001
605	0
605,4	0
605,9	0,001
606,3	0,001
606,8	0,001
607,2	0,001
607,7	0,001
608,1	0,002
608,6	0,001
609	0,001
609,4	0,001
609,9	0,001
610,3	0,001
610,8	0,001
611,2	0,001
611,7	0,001
612,1	0,001
612,6	0,001
613	0
613,4	0
613,9	0
614,3	0
614,8	0
615,2	0
615,7	0
616,1	0
616,6	0,001
617	0,001
617,4	0,001
617,9	0,001
618,3	0,001
618,8	0,001
619,2	0,001
619,7	0,001
620,1	0,001
620,5	0,001
621	0,001
621,4	0,001
621,9	0,001
622,3	0,001
622,8	0,001
623,2	0,001
623,6	0,001
624,1	0,001
624,5	0,001
625	0,001
625,4	0,001
625,9	0
626,3	-0
626,8	-0
627,2	0
627,6	0
628,1	0
628,5	0
629	0,001
629,4	0,001
629,9	0,001
630,3	0,001
630,7	0,001
631,2	0,001
631,6	0,001
632,1	0,001
632,5	0,001
633	0,001
633,4	0,001
633,8	0,001
634,3	0,001
634,7	0,001
635,2	0,001
635,6	0,001
636,1	0,001
636,5	0,001
636,9	0,001
637,4	0
637,8	0
638,3	0
638,7	0
639,2	0
639,6	0
640	-0
640,5	0
640,9	0
641,4	0,001
641,8	0,001
642,2	0,001
642,7	0,001
643,1	0,001
643,6	0,001
644	0
644,5	0
644,9	0
645,3	0
645,8	0,001
646,2	0,001
646,7	0,001
647,1	0,001
647,6	0,001
648	0,001
648,4	0,001
648,9	0
649,3	-0
649,8	0
650,2	0
650,6	0
651,1	0,001
651,5	0
652	0,001
652,4	0,001
652,9	0,001
653,3	0,001
653,7	0,002
654,2	0,001
654,6	0,001
655,1	0,001
655,5	0,001
655,9	0,001
656,4	0,001
656,8	0
657,3	0
657,7	0
658,2	0
658,6	0
659	0
659,5	0
659,9	-0
660,4	0
660,8	0
661,2	0,001
661,7	0,001
662,1	0
662,6	0
663	0
663,4	0
663,9	0
664,3	0
664,8	0
665,2	0,001
665,6	0,001
666,1	0
666,5	0
667	0
667,4	0,001
667,9	0
668,3	0
668,7	0,001
669,2	0,001
669,6	0,001
670,1	0,001
670,5	0,001
670,9	0
671,4	0
671,8	-0
672,3	-0,001
672,7	-0,001
673,1	-0,001
673,6	-0,001
674	-0,001
674,5	-0,001
674,9	-0
675,3	0
675,8	0
676,2	0
676,7	0
677,1	0,001
677,5	0,001
678	0
678,4	0
678,9	0
679,3	0,001
679,7	0
680,2	0
680,6	0
681,1	0
681,5	0,001
681,9	0,001
682,4	0,001
682,8	0,001
683,3	0,001
683,7	0,001
684,1	0,001
684,6	0
685	0
685,5	-0
685,9	-0
686,3	-0
686,8	0
687,2	0
687,7	0
688,1	0
688,5	0
689	0
689,4	0
689,9	0
690,3	0
690,7	0,001
691,2	0
691,6	0,001
692	0,001
692,5	0,001
692,9	0
693,4	0
693,8	0
694,2	0
694,7	0
695,1	0
695,6	0,001
696	0,001
696,4	0
696,9	0
697,3	0
697,8	0
698,2	0
698,6	-0
699,1	-0
699,5	0
699,9	0
700,4	0
700,8	0
701,3	0
701,7	0
702,1	0
702,6	0
703	0
703,5	-0
703,9	-0
704,3	-0
704,8	0
705,2	-0
705,6	-0
706,1	-0
706,5	-0
707	-0
707,4	-0
707,8	-0
708,3	-0
708,7	0
709,2	-0
709,6	-0
710	-0,001
710,5	-0,001
710,9	-0,001
711,3	-0,001
711,8	-0,001
712,2	-0
712,7	0
713,1	0
713,5	0
714	0
714,4	0
714,8	0
715,3	0
715,7	-0
716,2	-0
716,6	0
717	-0
717,5	-0
717,9	-0
718,3	-0
718,8	-0
719,2	-0
719,7	0
720,1	0
720,5	0
721	0
721,4	0
721,8	0
722,3	0
722,7	0
723,2	0
723,6	0,001
724	0,001
724,5	0,001
724,9	0,001
725,3	0,001
725,8	0,001
726,2	0,001
726,7	0,001
727,1	0
727,5	0
728	0
728,4	-0
728,8	-0
729,3	-0
729,7	-0
730,1	-0
730,6	-0,001
731	-0,001
731,5	-0
731,9	-0
732,3	-0
732,8	0
733,2	0
733,6	0
734,1	0
734,5	0
734,9	0
735,4	0
735,8	-0
736,3	-0
736,7	-0
737,1	-0
737,6	-0
738	-0
738,4	-0
738,9	-0
739,3	-0
739,7	-0
740,2	-0
740,6	-0
741,1	-0
741,5	-0
741,9	-0
742,4	-0
742,8	-0
743,2	-0
743,7	0
744,1	-0
744,5	0
745	0
745,4	0
745,8	0
746,3	0
746,7	-0
747,2	0
747,6	-0
748	0
748,5	-0
748,9	-0
749,3	-0
749,8	-0,001
750,2	-0,001
750,6	-0,001
751,1	-0,001
751,5	-0,001
751,9	-0
752,4	-0
752,8	-0
753,3	-0
753,7	-0
754,1	-0
754,6	-0
755	-0
755,4	-0
755,9	-0
756,3	0
756,7	0
757,2	0
757,6	-0
758	-0
758,5	-0
758,9	-0
759,3	-0,001
759,8	-0,001
760,2	-0,001
760,6	-0,001
761,1	-0,001
761,5	-0,001
761,9	-0,001
762,4	-0,001
762,8	-0,001
763,3	-0,001
763,7	-0,001
764,1	-0,001
764,6	-0,001
765	-0,001
765,4	-0
765,9	-0
766,3	0
766,7	0
767,2	0,001
767,6	0,001
768	0,001
768,5	0,001
768,9	0,001
769,3	0
769,8	0
770,2	0
770,6	-0
771,1	-0
771,5	-0
771,9	-0
772,4	-0
772,8	-0
773,2	0
773,7	0
774,1	0
774,5	0
775	0
775,4	0
775,8	-0
776,3	-0
776,7	-0
777,1	-0,001
777,6	-0,001
778	-0,001
778,4	-0,001
778,9	-0,001
779,3	-0,001
779,7	-0,001
780,2	-0,001
780,6	-0,001
781	-0,001
781,5	-0,001
781,9	-0
782,3	-0
782,8	-0
783,2	-0
783,6	-0
784,1	-0
784,5	-0
784,9	-0
785,4	-0
785,8	-0
786,2	-0
786,7	0
787,1	-0
787,5	-0
788	-0
788,4	-0
788,8	-0,001
789,3	-0
789,7	-0,001
790,1	-0
790,6	-0
791	-0
791,4	0
791,9	0
792,3	0
792,7	0
793,2	-0
793,6	0
794	0
794,5	-0
794,9	-0
795,3	-0,001
795,8	-0
796,2	-0
796,6	-0
797,1	-0
797,5	-0,001
797,9	-0
798,4	-0
798,8	-0
799,2	-0
799,7	-0
800,1	-0
800,5	-0
801	-0
801,4	-0
801,8	-0
802,2	-0
802,7	-0
803,1	-0
803,5	-0
804	-0
804,4	-0
804,8	-0
805,3	-0
805,7	0
806,1	0
806,6	0
807	0
807,4	0
807,9	-0
808,3	-0
808,7	-0
809,2	-0
809,6	-0
810	-0
810,4	-0
810,9	-0
811,3	-0
811,7	0
812,2	0
812,6	0
813	-0
813,5	0
813,9	-0
814,3	-0
814,8	-0
815,2	-0,001
815,6	-0,001
816,1	-0,001
816,5	-0,001
816,9	-0,001
817,3	-0
817,8	-0
818,2	-0
818,6	-0
819,1	0
819,5	0
819,9	-0
820,4	-0
820,8	-0
821,2	-0
821,7	0
822,1	0
822,5	-0
822,9	-0
823,4	-0
823,8	-0
824,2	-0,001
824,7	-0,001
825,1	-0,001
825,5	-0,001
826	-0,001
826,4	-0,001
826,8	-0,001
827,3	-0,001
827,7	-0,001
828,1	-0,001
828,5	-0,001
829	-0,001
829,4	-0,001
829,8	-0
830,3	-0
830,7	-0
831,1	0
831,6	0
832	-0
832,4	-0
832,8	-0
833,3	-0
833,7	-0
834,1	-0
834,6	-0
835	-0
835,4	-0
835,8	-0
836,3	-0
836,7	-0
837,1	-0
837,6	-0
838	-0
838,4	-0
838,9	-0
839,3	-0
839,7	0
840,1	0
840,6	0
841	0
841,4	0
841,9	-0
842,3	-0
842,7	-0
843,1	-0,001
843,6	-0
844	-0
844,4	-0,001
844,9	-0
845,3	-0
845,7	-0,001
846,2	-0
846,6	-0,001
847	-0
847,4	-0
847,9	-0,001
848,3	-0,001
848,7	-0
849,2	-0
849,6	0
850	0
850,4	0
850,9	0,001
851,3	0
851,7	0
852,2	0
852,6	-0
853	-0,001
853,4	-0,001
853,9	-0,001
854,3	-0,001
854,7	-0,001
855,2	-0,001
855,6	-0,001
856	-0,001
856,4	-0
856,9	-0
857,3	-0
857,7	0
858,2	0,001
858,6	0,001
859	0
859,4	0
859,9	0
860,3	0
860,7	-0
861,1	-0,001
861,6	-0
862	-0
862,4	-0,001
862,9	-0,001
863,3	-0
863,7	-0
864,1	-0
864,6	-0
865	-0
865,4	0
865,9	0
866,3	0
866,7	0
867,1	0
867,6	0
868	0,001
868,4	0,001
868,8	0
869,3	-0
869,7	-0
870,1	-0
870,6	-0
871	-0
871,4	-0,001
871,8	-0
872,3	-0
872,7	-0
873,1	-0
873,5	-0
874	-0
874,4	-0
874,8	-0
875,3	-0
875,7	-0
876,1	-0,001
876,5	-0,001
877	-0,001
877,4	-0
877,8	-0
878,2	-0
878,7	-0
879,1	-0,001
879,5	-0
879,9	-0
880,4	-0
880,8	-0
881,2	0
881,7	0
882,1	0,001
882,5	0
882,9	0
883,4	0
883,8	0
884,2	-0
884,6	-0
885,1	-0
885,5	-0
885,9	-0
886,3	-0
886,8	-0
887,2	-0
887,6	-0
888	-0
888,5	-0,001
888,9	-0,001
889,3	-0,001
889,8	-0,001
890,2	-0,001
890,6	-0,001
891	-0,001
891,5	-0,001
891,9	-0,001
892,3	-0,001
892,7	-0,001
893,2	-0,001
893,6	-0,001
894	-0,001
894,4	-0,001
894,9	-0,001
895,3	-0,001
895,7	-0,001
896,1	-0,001
896,6	-0,001
897	-0,001
897,4	-0,001
897,8	-0,001
898,3	-0,001
898,7	-0,001
899,1	-0,001
899,5	-0,001
900	-0,001
900,4	-0,001
900,8	-0,001
901,2	-0,001
901,7	-0,001
902,1	-0,001
902,5	-0,001
902,9	-0,001
903,4	-0
903,8	-0
904,2	-0,001
904,6	-0,001
905,1	-0,001
905,5	-0,001
905,9	-0,001
906,3	-0,001
906,8	-0,001
907,2	-0,001
907,6	-0,001
908	-0
908,5	-0
908,9	-0,001
909,3	-0,001
909,7	-0,001
910,2	-0,001
910,6	-0,001
911	-0,001
911,4	-0,001
911,9	-0,001
912,3	-0,001
912,7	-0,001
913,1	-0,001
913,6	-0,001
914	-0,001
914,4	-0,001
914,8	-0,001
915,3	-0,001
915,7	-0,001
916,1	-0
916,5	-0,001
916,9	-0,001
917,4	-0
917,8	-0,001
918,2	-0,001
918,6	-0,001
919,1	-0,001
919,5	-0,001
919,9	-0
920,3	-0,001
920,8	-0
921,2	-0,001
921,6	-0,001
922	-0,001
922,5	-0,001
922,9	-0,001
923,3	-0,001
923,7	-0,001
924,2	-0
924,6	-0,001
925	-0
925,4	-0
925,8	-0,001
926,3	-0,001
926,7	-0,001
927,1	-0,001
927,5	-0,001
928	-0,001
928,4	-0,001
928,8	-0,001
929,2	-0,001
929,7	-0,001
930,1	-0,001
930,5	-0,001
930,9	-0,001
931,3	-0,001
931,8	-0,001
932,2	-0,001
932,6	-0
933	-0,001
933,5	-0,001
933,9	-0,001
934,3	-0,001
934,7	-0,001
935,2	-0,001
935,6	-0,001
936	-0,001
936,4	-0,001
936,8	-0,001
937,3	-0,001
937,7	-0,001
938,1	-0,001
938,5	-0,001
939	-0,001
939,4	-0,001
939,8	-0,001
940,2	-0,001
940,6	-0,001
941,1	-0,001
941,5	-0,001
941,9	-0,001
942,3	-0,001
942,8	-0,002
943,2	-0,002
943,6	-0,002
944	-0,002
944,4	-0,001
944,9	-0,001
945,3	-0,001
945,7	-0,001
946,1	-0
946,6	-0
947	-0
947,4	-0
947,8	0
948,2	0
948,7	0,001
949,1	0,001
949,5	0,001
949,9	0
950,3	-0,001
950,8	-0
951,2	-0,001
951,6	-0,001
952	-0,001
952,5	-0,001
952,9	-0,001
953,3	-0,001
953,7	-0,001
954,1	-0,001
954,6	-0,001
955	-0,001
955,4	-0,001
955,8	-0,002
956,2	-0,002
956,7	-0,002
957,1	-0,002
957,5	-0,003
957,9	-0,002
958,3	-0,003
958,8	-0,002
959,2	-0,002
959,6	-0,002
960	-0,002
960,5	-0,001
960,9	-0,002
961,3	-0,002
961,7	-0,002
962,1	-0,001
962,6	-0,001
963	-0,001
963,4	-0,001
963,8	-0,001
964,2	-0,001
964,7	-0,001
965,1	-0,001
965,5	-0,002
965,9	-0,002
966,3	-0,002
966,8	-0,001
967,2	-0,001
967,6	-0,001
968	-0,001
968,4	-0,001
968,9	-0,001
969,3	-0,002
969,7	-0,002
970,1	-0,001
970,5	-0,001
971	-0,001
971,4	-0,001
971,8	-0,001
972,2	-0,001
972,6	-0,001
973,1	-0,001
973,5	-0,001
973,9	-0,001
974,3	-0,001
974,7	-0,001
975,2	-0,002
975,6	-0,001
976	-0,001
976,4	-0,001
976,8	-0,001
977,3	-0,001
977,7	-0,001
978,1	-0,001
978,5	-0,001
978,9	-0,001
979,4	-0,001
979,8	-0,001
980,2	-0,001
980,6	-0
981	-0,001
981,5	-0
981,9	-0
982,3	-0,001
982,7	-0,001
983,1	-0,001
983,6	-0,001
984	-0,001
984,4	-0,002
984,8	-0,001
985,2	-0,002
985,6	-0,002
986,1	-0,002
986,5	-0,002
986,9	-0,001
987,3	-0,001
987,7	-0,001
988,2	-0,001
988,6	-0,001
989	-0,001
989,4	-0,001
989,8	-0,001
990,3	-0,001
990,7	-0,001
991,1	-0,001
991,5	-0,001
991,9	-0,001
992,3	-0,001
992,8	-0,001
993,2	-0,001
993,6	-0,002
994	-0,002
994,4	-0,002
994,9	-0,002
995,3	-0,002
995,7	-0,002
996,1	-0,002
996,5	-0,002
996,9	-0,001
997,4	-0,001
997,8	-0,001
998,2	-0,001
998,6	-0,001
999	-0,001
999,5	-0,001
999,9	-0,001
1000,3	-0,001
1000,7	-0
1001,1	0
1001,5	0
1002	0
1002,4	0,001
1002,8	0,001
1003,2	0,001
1003,6	0,001
1004	0
1004,5	0
1004,9	-0
1005,3	-0
1005,7	-0
1006,1	0
1006,6	0
1007	0,001
1007,4	0
1007,8	0
1008,2	-0
1008,6	-0
1009,1	-0,001
1009,5	-0,001
1009,9	-0,002
1010,3	-0,002
1010,7	-0,002
1011,1	-0,001
1011,6	-0,001
1012	-0,001
1012,4	-0,001
1012,8	-0,001
1013,2	0
1013,6	0,001
1014,1	0,001
1014,5	0
1014,9	0
1015,3	0
1015,7	0
1016,1	-0
1016,6	-0,001
1017	-0
1017,4	0
1017,8	0
1018,2	0
1018,6	0
1019,1	0
1019,5	0
1019,9	-0
1020,3	-0
1020,7	0
1021,1	-0
1021,6	-0
1022	-0
1022,4	-0,001
1022,8	-0
1023,2	-0
1023,6	-0,001
1024,1	-0,001
1024,5	-0,002
1024,9	-0,002
1025,3	-0,002
1025,7	-0,002
1026,1	-0,002
1026,6	-0,001
1027	-0,001
1027,4	-0,001
1027,8	-0
1028,2	-0
1028,6	-0
1029	-0
1029,5	-0
1029,9	-0,001
1030,3	-0
1030,7	-0
1031,1	-0
1031,5	0
1032	0
1032,4	0
1032,8	0
1033,2	0,001
1033,6	0
1034	0,001
1034,4	0,001
1034,9	0,001
1035,3	0,001
1035,7	0,001
1036,1	0,001
1036,5	0,001
1036,9	0,001
1037,4	0
1037,8	0,001
1038,2	0,001
1038,6	0,002
1039	0,001
1039,4	0,001
1039,8	0,001
1040,3	0,001
1040,7	0
1041,1	0
1041,5	0,001
1041,9	0,001
1042,3	0,001
1042,7	0,002
1043,2	0,002
1043,6	0,001
1044	0,001
1044,4	0
1044,8	-0,001
1045,2	-0,001
1045,6	-0,002
1046,1	-0,001
1046,5	-0,001
1046,9	-0,001
1047,3	-0,001
1047,7	-0
1048,1	-0
1048,5	0,001
1049	-0
1049,4	0
1049,8	0
1050,2	-0
1050,6	-0,001
1051	-0,001
1051,4	-0,001
1051,9	-0,001
1052,3	-0,001
1052,7	-0
1053,1	-0
1053,5	0
1053,9	0
1054,3	-0
1054,8	0
1055,2	0,001
1055,6	0
1056	0
1056,4	0,001
1056,8	0,001
1057,2	0,002
1057,6	0,001
1058,1	0
1058,5	0
1058,9	0,001
1059,3	0,001
1059,7	0,001
1060,1	0,001
1060,5	0,002
1061	0,002
1061,4	0,002
1061,8	0,001
1062,2	0,001
1062,6	0,001
1063	-0,001
1063,4	-0
1063,8	-0
1064,3	0
1064,7	-0
1065,1	-0,001
1065,5	-0
1065,9	0
1066,3	-0,001
1066,7	0
1067,1	-0,001
1067,6	-0,002
1068	-0,002
1068,4	-0,002
1068,8	-0,003
1069,2	-0,003
1069,6	-0,003
1070	-0,003
1070,4	-0,002
1070,9	-0,001
1071,3	-0,001
1071,7	0
1072,1	-0
1072,5	0,001
1072,9	0,001
1073,3	0,001
1073,7	0,001
1074,2	0,002
1074,6	0,003
1075	0,003
1075,4	0,003
1075,8	0,003
1076,2	0,003
1076,6	0,002
1077	0,002
1077,5	0,001
1077,9	0
1078,3	-0,001
1078,7	-0,002
1079,1	-0,002
1079,5	-0,001
1079,9	-0,001
1080,3	-0,001
1080,7	0,001
1081,2	-0
1081,6	0,001
1082	0,002
1082,4	0,002
1082,8	0,002
1083,2	-0
1083,6	-0,001
1084	0,001
1084,5	0,001
1084,9	0,001
1085,3	0
1085,7	0,001
1086,1	0
1086,5	0,001
1086,9	0,001
1087,3	0,002
1087,7	0,002
1088,2	0,002
1088,6	0,004
1089	0,004
1089,4	0
1089,8	-0,002
1090,2	-0,004
1090,6	-0,003
1091	-0,002
1091,4	-0,004
1091,9	-0,003
1092,3	-0,001
1092,7	-0,002
1093,1	0,001
1093,5	-0
1093,9	-0,003
1094,3	-0,002
1094,7	-0,002
1095,1	0,003
1095,5	0,007
1096	0,007
1096,4	0,009
1096,8	0,009
1097,2	0,007
1097,6	0,003
1098	-0
1098,4	-0,004
1098,8	-0,005
1099,2	-0,007
1099,6	-0,003
1100,1	-0,005
1100,5	0,001
1100,9	0
1101,3	0,005
1101,7	0,011
1102,1	0,015
1102,5	0,016
1102,9	0,033
1103,3	0,034
1103,7	0,03
1104,2	0,029
1104,6	0,025
1105	0,029
1105,4	0,026
1105,8	0,022
1106,2	0,02
1106,6	0,033
1107	0,036
1107,4	0,035
1107,8	-0,018
1108,3	-0,196
