Data from Absorbance_135.txt Node
Date: Fri Nov 13 19:17:23 MSK 2020
User: vat
Spectrometer: MAYP114033
Trigger mode: 0
Integration Time (sec): 8,000000E-3
Scans to average: 10
Electric dark correction enabled: true
Nonlinearity correction enabled: false
Boxcar width: 3
XAxis mode: Wavelengths
Number of Pixels in Spectrum: 2068
>>>>>Begin Spectral Data<<<<<
199,4	-0
199,9	0,454
200,4	0,12
200,8	0,081
201,3	0,051
201,8	0,057
202,2	0,046
202,7	0,062
203,2	0,052
203,6	0,063
204,1	0,071
204,6	0,065
205	0,066
205,5	0,073
206	0,066
206,4	0,061
206,9	0,051
207,4	0,046
207,8	0,058
208,3	0,047
208,8	0,05
209,2	0,063
209,7	0,059
210,2	0,061
210,6	0,062
211,1	0,067
211,5	0,066
212	0,054
212,5	0,051
212,9	0,062
213,4	0,079
213,9	0,073
214,3	0,072
214,8	0,07
215,3	0,082
215,7	0,075
216,2	0,069
216,7	0,056
217,1	0,069
217,6	0,048
218,1	0,051
218,5	0,043
219	0,032
219,5	0,031
219,9	0,035
220,4	0,034
220,9	0,047
221,3	0,046
221,8	0,051
222,3	0,062
222,7	0,077
223,2	0,089
223,6	0,097
224,1	0,095
224,6	0,108
225	0,117
225,5	0,115
226	0,109
226,4	0,104
226,9	0,096
227,4	0,095
227,8	0,091
228,3	0,088
228,8	0,102
229,2	0,099
229,7	0,1
230,2	0,087
230,6	0,081
231,1	0,088
231,5	0,083
232	0,073
232,5	0,082
232,9	0,091
233,4	0,108
233,9	0,117
234,3	0,117
234,8	0,118
235,3	0,11
235,7	0,103
236,2	0,107
236,7	0,113
237,1	0,117
237,6	0,121
238,1	0,114
238,5	0,126
239	0,131
239,4	0,118
239,9	0,116
240,4	0,119
240,8	0,11
241,3	0,132
241,8	0,137
242,2	0,139
242,7	0,144
243,2	0,143
243,6	0,142
244,1	0,142
244,6	0,136
245	0,138
245,5	0,147
245,9	0,159
246,4	0,166
246,9	0,173
247,3	0,182
247,8	0,194
248,3	0,2
248,7	0,207
249,2	0,215
249,7	0,222
250,1	0,229
250,6	0,229
251	0,231
251,5	0,235
252	0,231
252,4	0,233
252,9	0,234
253,4	0,236
253,8	0,241
254,3	0,245
254,8	0,249
255,2	0,254
255,7	0,258
256,1	0,264
256,6	0,27
257,1	0,275
257,5	0,28
258	0,287
258,5	0,295
258,9	0,303
259,4	0,312
259,9	0,321
260,3	0,331
260,8	0,341
261,2	0,349
261,7	0,358
262,2	0,368
262,6	0,377
263,1	0,386
263,6	0,395
264	0,405
264,5	0,416
264,9	0,426
265,4	0,435
265,9	0,445
266,3	0,455
266,8	0,465
267,3	0,474
267,7	0,484
268,2	0,495
268,7	0,505
269,1	0,516
269,6	0,527
270	0,539
270,5	0,55
271	0,56
271,4	0,571
271,9	0,582
272,4	0,592
272,8	0,601
273,3	0,609
273,7	0,619
274,2	0,627
274,7	0,636
275,1	0,644
275,6	0,651
276,1	0,659
276,5	0,667
277	0,674
277,4	0,682
277,9	0,688
278,4	0,695
278,8	0,699
279,3	0,703
279,8	0,707
280,2	0,711
280,7	0,713
281,1	0,715
281,6	0,716
282,1	0,718
282,5	0,72
283	0,72
283,4	0,719
283,9	0,718
284,4	0,717
284,8	0,714
285,3	0,711
285,8	0,708
286,2	0,704
286,7	0,7
287,1	0,693
287,6	0,687
288,1	0,681
288,5	0,674
289	0,665
289,5	0,656
289,9	0,646
290,4	0,638
290,8	0,628
291,3	0,617
291,8	0,605
292,2	0,594
292,7	0,581
293,1	0,569
293,6	0,555
294,1	0,542
294,5	0,528
295	0,514
295,5	0,5
295,9	0,486
296,4	0,472
296,8	0,458
297,3	0,443
297,8	0,429
298,2	0,414
298,7	0,4
299,1	0,386
299,6	0,371
300,1	0,358
300,5	0,344
301	0,331
301,5	0,318
301,9	0,305
302,4	0,293
302,8	0,281
303,3	0,268
303,8	0,257
304,2	0,245
304,7	0,234
305,1	0,224
305,6	0,214
306,1	0,204
306,5	0,195
307	0,187
307,4	0,178
307,9	0,171
308,4	0,163
308,8	0,156
309,3	0,149
309,8	0,143
310,2	0,137
310,7	0,131
311,1	0,126
311,6	0,12
312,1	0,115
312,5	0,111
313	0,106
313,4	0,102
313,9	0,098
314,4	0,094
314,8	0,09
315,3	0,087
315,7	0,084
316,2	0,081
316,7	0,078
317,1	0,076
317,6	0,074
318	0,072
318,5	0,07
319	0,068
319,4	0,066
319,9	0,064
320,3	0,063
320,8	0,061
321,3	0,059
321,7	0,058
322,2	0,057
322,6	0,056
323,1	0,055
323,6	0,054
324	0,053
324,5	0,052
324,9	0,052
325,4	0,051
325,9	0,05
326,3	0,05
326,8	0,049
327,2	0,048
327,7	0,048
328,2	0,048
328,6	0,047
329,1	0,047
329,5	0,046
330	0,045
330,5	0,045
330,9	0,044
331,4	0,044
331,8	0,044
332,3	0,043
332,8	0,043
333,2	0,043
333,7	0,042
334,1	0,042
334,6	0,042
335,1	0,041
335,5	0,041
336	0,041
336,4	0,041
336,9	0,04
337,4	0,04
337,8	0,04
338,3	0,04
338,7	0,04
339,2	0,039
339,7	0,039
340,1	0,038
340,6	0,038
341	0,038
341,5	0,037
342	0,037
342,4	0,036
342,9	0,036
343,3	0,036
343,8	0,036
344,2	0,036
344,7	0,036
345,2	0,036
345,6	0,036
346,1	0,035
346,5	0,035
347	0,035
347,5	0,035
347,9	0,035
348,4	0,035
348,8	0,034
349,3	0,034
349,8	0,034
350,2	0,034
350,7	0,034
351,1	0,034
351,6	0,033
352	0,033
352,5	0,032
353	0,032
353,4	0,032
353,9	0,032
354,3	0,031
354,8	0,031
355,3	0,031
355,7	0,03
356,2	0,03
356,6	0,03
357,1	0,03
357,5	0,031
358	0,03
358,5	0,03
358,9	0,03
359,4	0,03
359,8	0,03
360,3	0,029
360,8	0,03
361,2	0,029
361,7	0,029
362,1	0,029
362,6	0,029
363	0,029
363,5	0,029
364	0,028
364,4	0,028
364,9	0,028
365,3	0,028
365,8	0,028
366,3	0,028
366,7	0,027
367,2	0,027
367,6	0,027
368,1	0,027
368,5	0,026
369	0,026
369,5	0,026
369,9	0,026
370,4	0,026
370,8	0,026
371,3	0,026
371,7	0,025
372,2	0,025
372,7	0,025
373,1	0,024
373,6	0,024
374	0,024
374,5	0,024
374,9	0,025
375,4	0,025
375,9	0,025
376,3	0,025
376,8	0,025
377,2	0,025
377,7	0,025
378,2	0,024
378,6	0,024
379,1	0,024
379,5	0,024
380	0,023
380,4	0,023
380,9	0,022
381,4	0,022
381,8	0,021
382,3	0,022
382,7	0,021
383,2	0,022
383,6	0,022
384,1	0,021
384,6	0,021
385	0,022
385,5	0,022
385,9	0,022
386,4	0,021
386,8	0,021
387,3	0,022
387,7	0,022
388,2	0,022
388,7	0,022
389,1	0,022
389,6	0,021
390	0,021
390,5	0,021
390,9	0,02
391,4	0,02
391,9	0,02
392,3	0,021
392,8	0,021
393,2	0,021
393,7	0,02
394,1	0,02
394,6	0,02
395,1	0,021
395,5	0,02
396	0,02
396,4	0,02
396,9	0,02
397,3	0,02
397,8	0,02
398,2	0,019
398,7	0,02
399,2	0,02
399,6	0,019
400,1	0,019
400,5	0,019
401	0,019
401,4	0,019
401,9	0,019
402,4	0,018
402,8	0,018
403,3	0,019
403,7	0,018
404,2	0,018
404,6	0,018
405,1	0,018
405,5	0,018
406	0,017
406,5	0,017
406,9	0,017
407,4	0,017
407,8	0,017
408,3	0,017
408,7	0,017
409,2	0,017
409,6	0,017
410,1	0,017
410,6	0,017
411	0,017
411,5	0,017
411,9	0,017
412,4	0,017
412,8	0,017
413,3	0,017
413,7	0,017
414,2	0,017
414,7	0,017
415,1	0,018
415,6	0,018
416	0,018
416,5	0,018
416,9	0,017
417,4	0,017
417,8	0,017
418,3	0,017
418,8	0,016
419,2	0,016
419,7	0,016
420,1	0,016
420,6	0,016
421	0,016
421,5	0,016
421,9	0,016
422,4	0,016
422,8	0,016
423,3	0,016
423,8	0,016
424,2	0,015
424,7	0,015
425,1	0,015
425,6	0,015
426	0,015
426,5	0,014
426,9	0,015
427,4	0,015
427,9	0,015
428,3	0,015
428,8	0,015
429,2	0,015
429,7	0,015
430,1	0,015
430,6	0,015
431	0,014
431,5	0,015
431,9	0,015
432,4	0,015
432,8	0,015
433,3	0,015
433,8	0,015
434,2	0,016
434,7	0,016
435,1	0,015
435,6	0,015
436	0,014
436,5	0,014
436,9	0,014
437,4	0,013
437,8	0,013
438,3	0,013
438,8	0,013
439,2	0,013
439,7	0,013
440,1	0,014
440,6	0,014
441	0,014
441,5	0,014
441,9	0,014
442,4	0,015
442,8	0,015
443,3	0,014
443,7	0,014
444,2	0,014
444,7	0,014
445,1	0,014
445,6	0,014
446	0,014
446,5	0,014
446,9	0,014
447,4	0,014
447,8	0,014
448,3	0,014
448,7	0,013
449,2	0,013
449,6	0,013
450,1	0,013
450,6	0,013
451	0,013
451,5	0,014
451,9	0,013
452,4	0,013
452,8	0,013
453,3	0,014
453,7	0,014
454,2	0,013
454,6	0,013
455,1	0,013
455,5	0,013
456	0,013
456,4	0,013
456,9	0,012
457,3	0,012
457,8	0,012
458,3	0,012
458,7	0,012
459,2	0,012
459,6	0,012
460,1	0,012
460,5	0,012
461	0,012
461,4	0,013
461,9	0,013
462,3	0,012
462,8	0,013
463,2	0,013
463,7	0,013
464,1	0,013
464,6	0,012
465	0,012
465,5	0,012
466	0,012
466,4	0,012
466,9	0,012
467,3	0,012
467,8	0,012
468,2	0,011
468,7	0,011
469,1	0,012
469,6	0,012
470	0,011
470,5	0,011
470,9	0,011
471,4	0,012
471,8	0,012
472,3	0,012
472,7	0,012
473,2	0,012
473,6	0,013
474,1	0,012
474,5	0,012
475	0,011
475,4	0,011
475,9	0,011
476,4	0,011
476,8	0,011
477,3	0,011
477,7	0,011
478,2	0,011
478,6	0,011
479,1	0,011
479,5	0,011
480	0,011
480,4	0,011
480,9	0,011
481,3	0,011
481,8	0,011
482,2	0,01
482,7	0,01
483,1	0,01
483,6	0,01
484	0,01
484,5	0,01
484,9	0,01
485,4	0,01
485,8	0,01
486,3	0,01
486,7	0,011
487,2	0,011
487,6	0,011
488,1	0,011
488,5	0,011
489	0,011
489,4	0,011
489,9	0,01
490,4	0,01
490,8	0,011
491,3	0,01
491,7	0,011
492,2	0,01
492,6	0,011
493,1	0,011
493,5	0,011
494	0,011
494,4	0,01
494,9	0,01
495,3	0,01
495,8	0,01
496,2	0,01
496,7	0,01
497,1	0,01
497,6	0,011
498	0,01
498,5	0,01
498,9	0,01
499,4	0,01
499,8	0,01
500,3	0,01
500,7	0,009
501,2	0,009
501,6	0,009
502,1	0,01
502,5	0,009
503	0,01
503,4	0,01
503,9	0,011
504,3	0,011
504,8	0,011
505,2	0,01
505,7	0,011
506,1	0,01
506,6	0,01
507	0,009
507,5	0,009
507,9	0,009
508,4	0,009
508,8	0,009
509,3	0,009
509,7	0,009
510,2	0,009
510,6	0,009
511,1	0,009
511,5	0,009
512	0,009
512,4	0,009
512,9	0,009
513,3	0,009
513,8	0,008
514,2	0,009
514,7	0,01
515,1	0,01
515,6	0,01
516	0,009
516,5	0,009
516,9	0,009
517,4	0,008
517,8	0,008
518,3	0,008
518,7	0,008
519,2	0,008
519,6	0,009
520,1	0,009
520,5	0,009
521	0,009
521,4	0,009
521,9	0,009
522,3	0,009
522,8	0,009
523,2	0,009
523,7	0,009
524,1	0,009
524,6	0,009
525	0,009
525,5	0,008
525,9	0,009
526,4	0,009
526,8	0,009
527,3	0,009
527,7	0,009
528,2	0,009
528,6	0,009
529,1	0,009
529,5	0,009
530	0,009
530,4	0,009
530,9	0,009
531,3	0,009
531,8	0,009
532,2	0,009
532,6	0,009
533,1	0,009
533,5	0,009
534	0,009
534,4	0,009
534,9	0,01
535,3	0,01
535,8	0,009
536,2	0,009
536,7	0,009
537,1	0,009
537,6	0,009
538	0,009
538,5	0,009
538,9	0,009
539,4	0,009
539,8	0,009
540,3	0,009
540,7	0,009
541,2	0,009
541,6	0,008
542,1	0,008
542,5	0,008
543	0,008
543,4	0,008
543,9	0,008
544,3	0,008
544,8	0,008
545,2	0,008
545,7	0,008
546,1	0,009
546,5	0,009
547	0,008
547,4	0,009
547,9	0,008
548,3	0,008
548,8	0,009
549,2	0,008
549,7	0,009
550,1	0,009
550,6	0,009
551	0,009
551,5	0,009
551,9	0,009
552,4	0,009
552,8	0,009
553,3	0,008
553,7	0,008
554,2	0,008
554,6	0,007
555,1	0,007
555,5	0,008
555,9	0,008
556,4	0,008
556,8	0,008
557,3	0,009
557,7	0,009
558,2	0,009
558,6	0,009
559,1	0,008
559,5	0,008
560	0,008
560,4	0,008
560,9	0,008
561,3	0,008
561,8	0,008
562,2	0,008
562,7	0,008
563,1	0,007
563,6	0,007
564	0,008
564,4	0,007
564,9	0,008
565,3	0,008
565,8	0,008
566,2	0,008
566,7	0,008
567,1	0,007
567,6	0,008
568	0,007
568,5	0,008
568,9	0,008
569,4	0,008
569,8	0,008
570,3	0,008
570,7	0,008
571,1	0,008
571,6	0,008
572	0,008
572,5	0,008
572,9	0,008
573,4	0,008
573,8	0,008
574,3	0,008
574,7	0,008
575,2	0,007
575,6	0,008
576,1	0,007
576,5	0,007
576,9	0,008
577,4	0,008
577,8	0,008
578,3	0,008
578,7	0,008
579,2	0,008
579,6	0,008
580,1	0,008
580,5	0,008
581	0,008
581,4	0,008
581,9	0,008
582,3	0,008
582,7	0,008
583,2	0,008
583,6	0,008
584,1	0,008
584,5	0,008
585	0,008
585,4	0,008
585,9	0,008
586,3	0,009
586,8	0,008
587,2	0,008
587,6	0,008
588,1	0,008
588,5	0,008
589	0,008
589,4	0,008
589,9	0,008
590,3	0,008
590,8	0,008
591,2	0,008
591,7	0,008
592,1	0,008
592,5	0,008
593	0,008
593,4	0,008
593,9	0,008
594,3	0,008
594,8	0,008
595,2	0,008
595,7	0,008
596,1	0,008
596,6	0,008
597	0,008
597,4	0,008
597,9	0,008
598,3	0,008
598,8	0,008
599,2	0,008
599,7	0,008
600,1	0,008
600,6	0,008
601	0,008
601,4	0,007
601,9	0,007
602,3	0,008
602,8	0,007
603,2	0,007
603,7	0,007
604,1	0,007
604,6	0,007
605	0,007
605,4	0,007
605,9	0,007
606,3	0,007
606,8	0,007
607,2	0,007
607,7	0,007
608,1	0,007
608,6	0,007
609	0,007
609,4	0,007
609,9	0,007
610,3	0,007
610,8	0,007
611,2	0,007
611,7	0,007
612,1	0,007
612,6	0,007
613	0,008
613,4	0,008
613,9	0,008
614,3	0,008
614,8	0,008
615,2	0,008
615,7	0,008
616,1	0,008
616,6	0,007
617	0,007
617,4	0,007
617,9	0,007
618,3	0,007
618,8	0,007
619,2	0,008
619,7	0,008
620,1	0,007
620,5	0,007
621	0,007
621,4	0,007
621,9	0,007
622,3	0,007
622,8	0,007
623,2	0,007
623,6	0,008
624,1	0,007
624,5	0,007
625	0,007
625,4	0,007
625,9	0,007
626,3	0,007
626,8	0,007
627,2	0,007
627,6	0,008
628,1	0,008
628,5	0,008
629	0,007
629,4	0,007
629,9	0,008
630,3	0,008
630,7	0,008
631,2	0,008
631,6	0,008
632,1	0,007
632,5	0,007
633	0,007
633,4	0,007
633,8	0,007
634,3	0,007
634,7	0,007
635,2	0,007
635,6	0,007
636,1	0,007
636,5	0,007
636,9	0,007
637,4	0,007
637,8	0,007
638,3	0,007
638,7	0,007
639,2	0,007
639,6	0,007
640	0,007
640,5	0,007
640,9	0,008
641,4	0,008
641,8	0,008
642,2	0,008
642,7	0,008
643,1	0,008
643,6	0,007
644	0,007
644,5	0,007
644,9	0,007
645,3	0,007
645,8	0,007
646,2	0,007
646,7	0,007
647,1	0,007
647,6	0,007
648	0,007
648,4	0,007
648,9	0,007
649,3	0,007
649,8	0,007
650,2	0,007
650,6	0,007
651,1	0,007
651,5	0,007
652	0,007
652,4	0,006
652,9	0,006
653,3	0,006
653,7	0,004
654,2	0,003
654,6	0,002
655,1	0,001
655,5	0,003
655,9	0,003
656,4	0,003
656,8	0,003
657,3	0,005
657,7	0,006
658,2	0,009
658,6	0,007
659	0,007
659,5	0,007
659,9	0,006
660,4	0,006
660,8	0,006
661,2	0,006
661,7	0,006
662,1	0,006
662,6	0,006
663	0,006
663,4	0,006
663,9	0,006
664,3	0,006
664,8	0,006
665,2	0,007
665,6	0,006
666,1	0,007
666,5	0,007
667	0,007
667,4	0,006
667,9	0,006
668,3	0,007
668,7	0,007
669,2	0,007
669,6	0,006
670,1	0,006
670,5	0,007
670,9	0,007
671,4	0,006
671,8	0,006
672,3	0,006
672,7	0,006
673,1	0,006
673,6	0,006
674	0,006
674,5	0,006
674,9	0,006
675,3	0,007
675,8	0,007
676,2	0,007
676,7	0,007
677,1	0,007
677,5	0,007
678	0,007
678,4	0,007
678,9	0,007
679,3	0,007
679,7	0,007
680,2	0,007
680,6	0,006
681,1	0,006
681,5	0,006
681,9	0,006
682,4	0,006
682,8	0,006
683,3	0,007
683,7	0,006
684,1	0,006
684,6	0,006
685	0,006
685,5	0,006
685,9	0,006
686,3	0,005
686,8	0,006
687,2	0,005
687,7	0,005
688,1	0,005
688,5	0,005
689	0,005
689,4	0,005
689,9	0,005
690,3	0,006
690,7	0,006
691,2	0,006
691,6	0,006
692	0,006
692,5	0,006
692,9	0,006
693,4	0,006
693,8	0,006
694,2	0,006
694,7	0,006
695,1	0,006
695,6	0,006
696	0,006
696,4	0,006
696,9	0,006
697,3	0,006
697,8	0,006
698,2	0,006
698,6	0,007
699,1	0,007
699,5	0,007
699,9	0,007
700,4	0,006
700,8	0,006
701,3	0,006
701,7	0,006
702,1	0,006
702,6	0,006
703	0,006
703,5	0,007
703,9	0,007
704,3	0,007
704,8	0,007
705,2	0,007
705,6	0,007
706,1	0,007
706,5	0,007
707	0,006
707,4	0,006
707,8	0,006
708,3	0,006
708,7	0,006
709,2	0,006
709,6	0,006
710	0,006
710,5	0,006
710,9	0,006
711,3	0,006
711,8	0,006
712,2	0,006
712,7	0,006
713,1	0,005
713,5	0,005
714	0,006
714,4	0,006
714,8	0,006
715,3	0,007
715,7	0,006
716,2	0,006
716,6	0,006
717	0,006
717,5	0,005
717,9	0,005
718,3	0,005
718,8	0,005
719,2	0,006
719,7	0,006
720,1	0,006
720,5	0,007
721	0,007
721,4	0,007
721,8	0,007
722,3	0,007
722,7	0,006
723,2	0,006
723,6	0,006
724	0,006
724,5	0,006
724,9	0,006
725,3	0,007
725,8	0,007
726,2	0,007
726,7	0,006
727,1	0,006
727,5	0,006
728	0,006
728,4	0,006
728,8	0,006
729,3	0,006
729,7	0,006
730,1	0,007
730,6	0,007
731	0,007
731,5	0,007
731,9	0,007
732,3	0,007
732,8	0,007
733,2	0,007
733,6	0,007
734,1	0,006
734,5	0,007
734,9	0,006
735,4	0,007
735,8	0,007
736,3	0,007
736,7	0,006
737,1	0,007
737,6	0,007
738	0,007
738,4	0,007
738,9	0,006
739,3	0,006
739,7	0,006
740,2	0,006
740,6	0,006
741,1	0,006
741,5	0,006
741,9	0,006
742,4	0,006
742,8	0,007
743,2	0,006
743,7	0,006
744,1	0,006
744,5	0,006
745	0,006
745,4	0,006
745,8	0,005
746,3	0,006
746,7	0,006
747,2	0,006
747,6	0,006
748	0,006
748,5	0,005
748,9	0,006
749,3	0,006
749,8	0,006
750,2	0,006
750,6	0,007
751,1	0,007
751,5	0,007
751,9	0,007
752,4	0,007
752,8	0,006
753,3	0,006
753,7	0,006
754,1	0,006
754,6	0,006
755	0,006
755,4	0,006
755,9	0,006
756,3	0,005
756,7	0,006
757,2	0,006
757,6	0,006
758	0,006
758,5	0,006
758,9	0,006
759,3	0,006
759,8	0,006
760,2	0,006
760,6	0,006
761,1	0,006
761,5	0,006
761,9	0,006
762,4	0,006
762,8	0,006
763,3	0,006
763,7	0,006
764,1	0,007
764,6	0,007
765	0,007
765,4	0,007
765,9	0,007
766,3	0,007
766,7	0,007
767,2	0,006
767,6	0,006
768	0,006
768,5	0,006
768,9	0,007
769,3	0,006
769,8	0,006
770,2	0,006
770,6	0,006
771,1	0,006
771,5	0,006
771,9	0,005
772,4	0,006
772,8	0,005
773,2	0,006
773,7	0,006
774,1	0,006
774,5	0,006
775	0,006
775,4	0,006
775,8	0,006
776,3	0,005
776,7	0,005
777,1	0,005
777,6	0,005
778	0,005
778,4	0,006
778,9	0,006
779,3	0,006
779,7	0,005
780,2	0,005
780,6	0,006
781	0,006
781,5	0,005
781,9	0,005
782,3	0,005
782,8	0,005
783,2	0,005
783,6	0,005
784,1	0,005
784,5	0,005
784,9	0,005
785,4	0,005
785,8	0,005
786,2	0,005
786,7	0,005
787,1	0,005
787,5	0,006
788	0,006
788,4	0,007
788,8	0,007
789,3	0,007
789,7	0,007
790,1	0,007
790,6	0,007
791	0,006
791,4	0,006
791,9	0,006
792,3	0,006
792,7	0,006
793,2	0,006
793,6	0,006
794	0,007
794,5	0,007
794,9	0,007
795,3	0,007
795,8	0,007
796,2	0,007
796,6	0,007
797,1	0,007
797,5	0,006
797,9	0,006
798,4	0,006
798,8	0,006
799,2	0,006
799,7	0,006
800,1	0,006
800,5	0,006
801	0,006
801,4	0,006
801,8	0,006
802,2	0,006
802,7	0,006
803,1	0,006
803,5	0,006
804	0,006
804,4	0,006
804,8	0,006
805,3	0,006
805,7	0,006
806,1	0,006
806,6	0,006
807	0,006
807,4	0,006
807,9	0,006
808,3	0,006
808,7	0,006
809,2	0,006
809,6	0,006
810	0,006
810,4	0,006
810,9	0,006
811,3	0,005
811,7	0,005
812,2	0,005
812,6	0,005
813	0,005
813,5	0,005
813,9	0,005
814,3	0,005
814,8	0,005
815,2	0,005
815,6	0,005
816,1	0,005
816,5	0,005
816,9	0,005
817,3	0,005
817,8	0,005
818,2	0,006
818,6	0,006
819,1	0,006
819,5	0,006
819,9	0,006
820,4	0,005
820,8	0,005
821,2	0,005
821,7	0,005
822,1	0,006
822,5	0,006
822,9	0,006
823,4	0,006
823,8	0,006
824,2	0,006
824,7	0,006
825,1	0,007
825,5	0,007
826	0,006
826,4	0,006
826,8	0,006
827,3	0,006
827,7	0,006
828,1	0,005
828,5	0,005
829	0,005
829,4	0,005
829,8	0,006
830,3	0,005
830,7	0,005
831,1	0,005
831,6	0,005
832	0,005
832,4	0,005
832,8	0,005
833,3	0,005
833,7	0,005
834,1	0,005
834,6	0,005
835	0,005
835,4	0,005
835,8	0,005
836,3	0,005
836,7	0,005
837,1	0,005
837,6	0,005
838	0,005
838,4	0,005
838,9	0,004
839,3	0,004
839,7	0,004
840,1	0,004
840,6	0,004
841	0,005
841,4	0,005
841,9	0,005
842,3	0,005
842,7	0,005
843,1	0,005
843,6	0,005
844	0,005
844,4	0,005
844,9	0,006
845,3	0,006
845,7	0,006
846,2	0,006
846,6	0,006
847	0,006
847,4	0,005
847,9	0,005
848,3	0,005
848,7	0,005
849,2	0,005
849,6	0,005
850	0,005
850,4	0,005
850,9	0,005
851,3	0,005
851,7	0,005
852,2	0,006
852,6	0,006
853	0,006
853,4	0,006
853,9	0,006
854,3	0,006
854,7	0,006
855,2	0,005
855,6	0,006
856	0,006
856,4	0,006
856,9	0,006
857,3	0,006
857,7	0,007
858,2	0,007
858,6	0,007
859	0,007
859,4	0,008
859,9	0,007
860,3	0,007
860,7	0,007
861,1	0,006
861,6	0,006
862	0,005
862,4	0,005
862,9	0,005
863,3	0,005
863,7	0,005
864,1	0,006
864,6	0,006
865	0,006
865,4	0,007
865,9	0,006
866,3	0,006
866,7	0,006
867,1	0,006
867,6	0,006
868	0,006
868,4	0,006
868,8	0,006
869,3	0,006
869,7	0,006
870,1	0,006
870,6	0,006
871	0,006
871,4	0,006
871,8	0,005
872,3	0,006
872,7	0,005
873,1	0,005
873,5	0,005
874	0,005
874,4	0,005
874,8	0,005
875,3	0,005
875,7	0,005
876,1	0,005
876,5	0,005
877	0,004
877,4	0,005
877,8	0,005
878,2	0,005
878,7	0,005
879,1	0,005
879,5	0,005
879,9	0,005
880,4	0,005
880,8	0,005
881,2	0,005
881,7	0,005
882,1	0,006
882,5	0,006
882,9	0,006
883,4	0,006
883,8	0,006
884,2	0,006
884,6	0,006
885,1	0,006
885,5	0,006
885,9	0,006
886,3	0,006
886,8	0,005
887,2	0,005
887,6	0,006
888	0,006
888,5	0,006
888,9	0,006
889,3	0,007
889,8	0,007
890,2	0,007
890,6	0,006
891	0,007
891,5	0,006
891,9	0,006
892,3	0,006
892,7	0,006
893,2	0,006
893,6	0,006
894	0,006
894,4	0,006
894,9	0,006
895,3	0,006
895,7	0,006
896,1	0,006
896,6	0,006
897	0,006
897,4	0,006
897,8	0,006
898,3	0,006
898,7	0,006
899,1	0,006
899,5	0,006
900	0,007
900,4	0,007
900,8	0,006
901,2	0,006
901,7	0,006
902,1	0,006
902,5	0,006
902,9	0,006
903,4	0,006
903,8	0,006
904,2	0,006
904,6	0,006
905,1	0,007
905,5	0,007
905,9	0,006
906,3	0,007
906,8	0,006
907,2	0,006
907,6	0,006
908	0,006
908,5	0,006
908,9	0,006
909,3	0,006
909,7	0,006
910,2	0,006
910,6	0,007
911	0,006
911,4	0,006
911,9	0,006
912,3	0,006
912,7	0,006
913,1	0,006
913,6	0,006
914	0,006
914,4	0,005
914,8	0,005
915,3	0,005
915,7	0,005
916,1	0,005
916,5	0,005
916,9	0,005
917,4	0,005
917,8	0,005
918,2	0,005
918,6	0,005
919,1	0,005
919,5	0,005
919,9	0,005
920,3	0,005
920,8	0,005
921,2	0,005
921,6	0,006
922	0,006
922,5	0,006
922,9	0,006
923,3	0,006
923,7	0,006
924,2	0,006
924,6	0,005
925	0,005
925,4	0,005
925,8	0,005
926,3	0,005
926,7	0,005
927,1	0,005
927,5	0,005
928	0,005
928,4	0,005
928,8	0,005
929,2	0,005
929,7	0,006
930,1	0,006
930,5	0,006
930,9	0,006
931,3	0,006
931,8	0,006
932,2	0,006
932,6	0,005
933	0,006
933,5	0,006
933,9	0,006
934,3	0,006
934,7	0,006
935,2	0,006
935,6	0,006
936	0,006
936,4	0,006
936,8	0,006
937,3	0,006
937,7	0,006
938,1	0,006
938,5	0,006
939	0,006
939,4	0,006
939,8	0,005
940,2	0,005
940,6	0,006
941,1	0,006
941,5	0,006
941,9	0,006
942,3	0,006
942,8	0,006
943,2	0,006
943,6	0,006
944	0,006
944,4	0,005
944,9	0,006
945,3	0,005
945,7	0,006
946,1	0,006
946,6	0,006
947	0,006
947,4	0,006
947,8	0,006
948,2	0,006
948,7	0,007
949,1	0,006
949,5	0,007
949,9	0,007
950,3	0,006
950,8	0,006
951,2	0,006
951,6	0,006
952	0,005
952,5	0,006
952,9	0,005
953,3	0,006
953,7	0,006
954,1	0,007
954,6	0,007
955	0,006
955,4	0,006
955,8	0,006
956,2	0,006
956,7	0,006
957,1	0,006
957,5	0,006
957,9	0,007
958,3	0,006
958,8	0,006
959,2	0,007
959,6	0,007
960	0,006
960,5	0,006
960,9	0,007
961,3	0,007
961,7	0,007
962,1	0,007
962,6	0,007
963	0,007
963,4	0,007
963,8	0,007
964,2	0,007
964,7	0,007
965,1	0,007
965,5	0,007
965,9	0,007
966,3	0,007
966,8	0,007
967,2	0,008
967,6	0,008
968	0,007
968,4	0,007
968,9	0,007
969,3	0,007
969,7	0,007
970,1	0,006
970,5	0,006
971	0,006
971,4	0,006
971,8	0,006
972,2	0,005
972,6	0,005
973,1	0,005
973,5	0,005
973,9	0,004
974,3	0,005
974,7	0,005
975,2	0,005
975,6	0,006
976	0,005
976,4	0,006
976,8	0,006
977,3	0,006
977,7	0,006
978,1	0,006
978,5	0,005
978,9	0,006
979,4	0,005
979,8	0,005
980,2	0,006
980,6	0,006
981	0,005
981,5	0,006
981,9	0,006
982,3	0,006
982,7	0,006
983,1	0,005
983,6	0,006
984	0,006
984,4	0,006
984,8	0,006
985,2	0,006
985,6	0,006
986,1	0,007
986,5	0,007
986,9	0,007
987,3	0,007
987,7	0,007
988,2	0,007
988,6	0,008
989	0,007
989,4	0,007
989,8	0,007
990,3	0,007
990,7	0,006
991,1	0,005
991,5	0,005
991,9	0,005
992,3	0,006
992,8	0,006
993,2	0,006
993,6	0,006
994	0,006
994,4	0,006
994,9	0,006
995,3	0,006
995,7	0,006
996,1	0,005
996,5	0,005
996,9	0,005
997,4	0,005
997,8	0,005
998,2	0,004
998,6	0,004
999	0,004
999,5	0,004
999,9	0,005
1000,3	0,004
1000,7	0,005
1001,1	0,005
1001,5	0,006
1002	0,006
1002,4	0,006
1002,8	0,006
1003,2	0,007
1003,6	0,007
1004	0,006
1004,5	0,007
1004,9	0,007
1005,3	0,006
1005,7	0,006
1006,1	0,006
1006,6	0,006
1007	0,006
1007,4	0,005
1007,8	0,005
1008,2	0,004
1008,6	0,004
1009,1	0,004
1009,5	0,004
1009,9	0,005
1010,3	0,004
1010,7	0,004
1011,1	0,005
1011,6	0,005
1012	0,005
1012,4	0,005
1012,8	0,006
1013,2	0,005
1013,6	0,005
1014,1	0,006
1014,5	0,006
1014,9	0,006
1015,3	0,006
1015,7	0,006
1016,1	0,006
1016,6	0,006
1017	0,006
1017,4	0,006
1017,8	0,005
1018,2	0,005
1018,6	0,005
1019,1	0,005
1019,5	0,005
1019,9	0,005
1020,3	0,005
1020,7	0,005
1021,1	0,006
1021,6	0,006
1022	0,006
1022,4	0,006
1022,8	0,006
1023,2	0,007
1023,6	0,007
1024,1	0,007
1024,5	0,006
1024,9	0,007
1025,3	0,006
1025,7	0,006
1026,1	0,006
1026,6	0,005
1027	0,005
1027,4	0,005
1027,8	0,005
1028,2	0,005
1028,6	0,005
1029	0,005
1029,5	0,005
1029,9	0,006
1030,3	0,006
1030,7	0,006
1031,1	0,006
1031,5	0,006
1032	0,007
1032,4	0,006
1032,8	0,007
1033,2	0,006
1033,6	0,005
1034	0,005
1034,4	0,004
1034,9	0,004
1035,3	0,004
1035,7	0,004
1036,1	0,004
1036,5	0,004
1036,9	0,004
1037,4	0,005
1037,8	0,005
1038,2	0,005
1038,6	0,006
1039	0,005
1039,4	0,005
1039,8	0,005
1040,3	0,005
1040,7	0,005
1041,1	0,005
1041,5	0,004
1041,9	0,005
1042,3	0,005
1042,7	0,005
1043,2	0,006
1043,6	0,005
1044	0,005
1044,4	0,005
1044,8	0,005
1045,2	0,004
1045,6	0,004
1046,1	0,004
1046,5	0,005
1046,9	0,005
1047,3	0,005
1047,7	0,004
1048,1	0,004
1048,5	0,003
1049	0,003
1049,4	0,003
1049,8	0,004
1050,2	0,003
1050,6	0,004
1051	0,005
1051,4	0,007
1051,9	0,007
1052,3	0,007
1052,7	0,007
1053,1	0,007
1053,5	0,007
1053,9	0,006
1054,3	0,006
1054,8	0,005
1055,2	0,005
1055,6	0,005
1056	0,005
1056,4	0,004
1056,8	0,005
1057,2	0,005
1057,6	0,005
1058,1	0,005
1058,5	0,005
1058,9	0,005
1059,3	0,006
1059,7	0,006
1060,1	0,007
1060,5	0,007
1061	0,007
1061,4	0,007
1061,8	0,008
1062,2	0,006
1062,6	0,006
1063	0,007
1063,4	0,006
1063,8	0,006
1064,3	0,006
1064,7	0,004
1065,1	0,004
1065,5	0,003
1065,9	0,002
1066,3	0,002
1066,7	0,002
1067,1	0,002
1067,6	0,004
1068	0,003
1068,4	0,003
1068,8	0,004
1069,2	0,004
1069,6	0,006
1070	0,005
1070,4	0,006
1070,9	0,007
1071,3	0,007
1071,7	0,007
1072,1	0,007
1072,5	0,005
1072,9	0,005
1073,3	0,004
1073,7	0,003
1074,2	0,004
1074,6	0,003
1075	0,003
1075,4	0,004
1075,8	0,004
1076,2	0,003
1076,6	0,003
1077	0,003
1077,5	0,004
1077,9	0,004
1078,3	0,005
1078,7	0,006
1079,1	0,007
1079,5	0,006
1079,9	0,006
1080,3	0,006
1080,7	0,006
1081,2	0,006
1081,6	0,005
1082	0,004
1082,4	0,006
1082,8	0,006
1083,2	0,007
1083,6	0,005
1084	0,003
1084,5	0,003
1084,9	0,005
1085,3	0,004
1085,7	0,004
1086,1	0,003
1086,5	0,005
1086,9	0,007
1087,3	0,008
1087,7	0,009
1088,2	0,01
1088,6	0,012
1089	0,013
1089,4	0,01
1089,8	0,01
1090,2	0,01
1090,6	0,008
1091	0,009
1091,4	0,007
1091,9	0,005
1092,3	0,008
1092,7	0,009
1093,1	0,01
1093,5	0,008
1093,9	0,007
1094,3	0,008
1094,7	0,013
1095,1	0,013
1095,5	0,007
1096	0,007
1096,4	0,005
1096,8	0,001
1097,2	0,005
1097,6	0
1098	0,003
1098,4	0,008
1098,8	0,002
1099,2	0,009
1099,6	0,019
1100,1	0,019
1100,5	0,026
1100,9	0,03
1101,3	0,033
1101,7	0,043
1102,1	0,041
1102,5	0,034
1102,9	0,027
1103,3	0,023
1103,7	0,022
1104,2	0,017
1104,6	0,02
1105	0,017
1105,4	0,009
1105,8	0,02
1106,2	0,027
1106,6	0,022
1107	0,033
1107,4	0,017
1107,8	0,012
1108,3	-0
