Data from Absorbance_228.txt Node
Date: Fri Nov 13 21:27:34 MSK 2020
User: vat
Spectrometer: MAYP114033
Trigger mode: 0
Integration Time (sec): 8,000000E-3
Scans to average: 10
Electric dark correction enabled: true
Nonlinearity correction enabled: false
Boxcar width: 3
XAxis mode: Wavelengths
Number of Pixels in Spectrum: 2068
>>>>>Begin Spectral Data<<<<<
199,4	-0,429
199,9	-0
200,4	0,515
200,8	0,205
201,3	0,152
201,8	0,181
202,2	0,154
202,7	0,119
203,2	0,084
203,6	0,076
204,1	0,101
204,6	0,083
205	0,059
205,5	0,079
206	0,1
206,4	0,121
206,9	0,119
207,4	0,125
207,8	0,136
208,3	0,145
208,8	0,149
209,2	0,139
209,7	0,137
210,2	0,141
210,6	0,129
211,1	0,128
211,5	0,132
212	0,123
212,5	0,135
212,9	0,128
213,4	0,137
213,9	0,158
214,3	0,16
214,8	0,158
215,3	0,156
215,7	0,147
216,2	0,142
216,7	0,138
217,1	0,122
217,6	0,132
218,1	0,129
218,5	0,135
219	0,153
219,5	0,188
219,9	0,207
220,4	0,2
220,9	0,189
221,3	0,204
221,8	0,196
222,3	0,167
222,7	0,156
223,2	0,145
223,6	0,163
224,1	0,164
224,6	0,152
225	0,159
225,5	0,18
226	0,188
226,4	0,172
226,9	0,157
227,4	0,186
227,8	0,187
228,3	0,197
228,8	0,182
229,2	0,167
229,7	0,186
230,2	0,188
230,6	0,17
231,1	0,193
231,5	0,189
232	0,2
232,5	0,226
232,9	0,217
233,4	0,233
233,9	0,237
234,3	0,223
234,8	0,22
235,3	0,243
235,7	0,23
236,2	0,222
236,7	0,214
237,1	0,21
237,6	0,211
238,1	0,21
238,5	0,202
239	0,194
239,4	0,195
239,9	0,203
240,4	0,22
240,8	0,221
241,3	0,233
241,8	0,23
242,2	0,245
242,7	0,25
243,2	0,247
243,6	0,234
244,1	0,233
244,6	0,247
245	0,263
245,5	0,273
245,9	0,298
246,4	0,317
246,9	0,347
247,3	0,375
247,8	0,388
248,3	0,399
248,7	0,411
249,2	0,423
249,7	0,424
250,1	0,417
250,6	0,409
251	0,412
251,5	0,41
252	0,411
252,4	0,408
252,9	0,415
253,4	0,422
253,8	0,43
254,3	0,439
254,8	0,447
255,2	0,457
255,7	0,468
256,1	0,479
256,6	0,489
257,1	0,5
257,5	0,51
258	0,523
258,5	0,535
258,9	0,55
259,4	0,563
259,9	0,58
260,3	0,597
260,8	0,613
261,2	0,63
261,7	0,647
262,2	0,662
262,6	0,679
263,1	0,698
263,6	0,714
264	0,732
264,5	0,75
264,9	0,768
265,4	0,787
265,9	0,806
266,3	0,821
266,8	0,839
267,3	0,858
267,7	0,878
268,2	0,896
268,7	0,914
269,1	0,932
269,6	0,951
270	0,971
270,5	0,989
271	1,008
271,4	1,027
271,9	1,045
272,4	1,061
272,8	1,079
273,3	1,095
273,7	1,112
274,2	1,126
274,7	1,141
275,1	1,158
275,6	1,174
276,1	1,187
276,5	1,201
277	1,213
277,4	1,227
277,9	1,239
278,4	1,25
278,8	1,26
279,3	1,269
279,8	1,279
280,2	1,286
280,7	1,29
281,1	1,293
281,6	1,294
282,1	1,297
282,5	1,298
283	1,295
283,4	1,295
283,9	1,295
284,4	1,291
284,8	1,288
285,3	1,282
285,8	1,275
286,2	1,268
286,7	1,26
287,1	1,249
287,6	1,239
288,1	1,226
288,5	1,212
289	1,196
289,5	1,18
289,9	1,162
290,4	1,146
290,8	1,127
291,3	1,11
291,8	1,091
292,2	1,071
292,7	1,05
293,1	1,026
293,6	1,003
294,1	0,979
294,5	0,954
295	0,928
295,5	0,902
295,9	0,876
296,4	0,851
296,8	0,824
297,3	0,798
297,8	0,771
298,2	0,745
298,7	0,72
299,1	0,694
299,6	0,669
300,1	0,644
300,5	0,619
301	0,596
301,5	0,572
301,9	0,549
302,4	0,526
302,8	0,503
303,3	0,482
303,8	0,461
304,2	0,44
304,7	0,42
305,1	0,402
305,6	0,384
306,1	0,367
306,5	0,35
307	0,334
307,4	0,319
307,9	0,305
308,4	0,291
308,8	0,277
309,3	0,265
309,8	0,253
310,2	0,242
310,7	0,231
311,1	0,22
311,6	0,211
312,1	0,202
312,5	0,193
313	0,184
313,4	0,177
313,9	0,17
314,4	0,163
314,8	0,157
315,3	0,151
315,7	0,146
316,2	0,142
316,7	0,137
317,1	0,132
317,6	0,129
318	0,125
318,5	0,121
319	0,117
319,4	0,114
319,9	0,112
320,3	0,109
320,8	0,106
321,3	0,103
321,7	0,102
322,2	0,1
322,6	0,098
323,1	0,096
323,6	0,095
324	0,094
324,5	0,093
324,9	0,092
325,4	0,091
325,9	0,089
326,3	0,088
326,8	0,087
327,2	0,086
327,7	0,085
328,2	0,084
328,6	0,083
329,1	0,083
329,5	0,082
330	0,082
330,5	0,081
330,9	0,081
331,4	0,08
331,8	0,08
332,3	0,079
332,8	0,079
333,2	0,079
333,7	0,078
334,1	0,078
334,6	0,077
335,1	0,076
335,5	0,076
336	0,076
336,4	0,076
336,9	0,075
337,4	0,075
337,8	0,074
338,3	0,074
338,7	0,074
339,2	0,073
339,7	0,073
340,1	0,072
340,6	0,072
341	0,072
341,5	0,072
342	0,072
342,4	0,071
342,9	0,07
343,3	0,07
343,8	0,07
344,2	0,07
344,7	0,07
345,2	0,069
345,6	0,069
346,1	0,069
346,5	0,069
347	0,069
347,5	0,069
347,9	0,069
348,4	0,068
348,8	0,069
349,3	0,068
349,8	0,068
350,2	0,068
350,7	0,067
351,1	0,067
351,6	0,067
352	0,066
352,5	0,067
353	0,067
353,4	0,066
353,9	0,066
354,3	0,066
354,8	0,066
355,3	0,066
355,7	0,065
356,2	0,065
356,6	0,065
357,1	0,065
357,5	0,065
358	0,065
358,5	0,065
358,9	0,065
359,4	0,065
359,8	0,064
360,3	0,064
360,8	0,064
361,2	0,064
361,7	0,063
362,1	0,063
362,6	0,063
363	0,063
363,5	0,063
364	0,063
364,4	0,062
364,9	0,062
365,3	0,062
365,8	0,062
366,3	0,061
366,7	0,061
367,2	0,061
367,6	0,061
368,1	0,061
368,5	0,061
369	0,061
369,5	0,061
369,9	0,06
370,4	0,06
370,8	0,06
371,3	0,06
371,7	0,059
372,2	0,059
372,7	0,059
373,1	0,059
373,6	0,059
374	0,058
374,5	0,058
374,9	0,058
375,4	0,058
375,9	0,057
376,3	0,057
376,8	0,057
377,2	0,057
377,7	0,056
378,2	0,056
378,6	0,056
379,1	0,056
379,5	0,056
380	0,056
380,4	0,055
380,9	0,055
381,4	0,054
381,8	0,054
382,3	0,054
382,7	0,054
383,2	0,054
383,6	0,054
384,1	0,054
384,6	0,054
385	0,055
385,5	0,054
385,9	0,054
386,4	0,053
386,8	0,053
387,3	0,053
387,7	0,052
388,2	0,052
388,7	0,051
389,1	0,052
389,6	0,052
390	0,051
390,5	0,052
390,9	0,052
391,4	0,052
391,9	0,051
392,3	0,051
392,8	0,051
393,2	0,052
393,7	0,051
394,1	0,051
394,6	0,05
395,1	0,05
395,5	0,05
396	0,05
396,4	0,05
396,9	0,051
397,3	0,051
397,8	0,051
398,2	0,051
398,7	0,051
399,2	0,05
399,6	0,05
400,1	0,05
400,5	0,049
401	0,049
401,4	0,049
401,9	0,049
402,4	0,049
402,8	0,049
403,3	0,049
403,7	0,049
404,2	0,049
404,6	0,049
405,1	0,048
405,5	0,048
406	0,048
406,5	0,048
406,9	0,048
407,4	0,048
407,8	0,048
408,3	0,048
408,7	0,048
409,2	0,048
409,6	0,049
410,1	0,048
410,6	0,048
411	0,048
411,5	0,048
411,9	0,048
412,4	0,048
412,8	0,047
413,3	0,047
413,7	0,047
414,2	0,047
414,7	0,046
415,1	0,046
415,6	0,046
416	0,046
416,5	0,046
416,9	0,046
417,4	0,046
417,8	0,046
418,3	0,047
418,8	0,047
419,2	0,047
419,7	0,047
420,1	0,047
420,6	0,047
421	0,046
421,5	0,046
421,9	0,045
422,4	0,045
422,8	0,046
423,3	0,046
423,8	0,046
424,2	0,046
424,7	0,045
425,1	0,045
425,6	0,045
426	0,045
426,5	0,045
426,9	0,044
427,4	0,045
427,9	0,045
428,3	0,045
428,8	0,045
429,2	0,044
429,7	0,044
430,1	0,044
430,6	0,044
431	0,043
431,5	0,043
431,9	0,043
432,4	0,043
432,8	0,043
433,3	0,043
433,8	0,043
434,2	0,042
434,7	0,042
435,1	0,042
435,6	0,042
436	0,042
436,5	0,043
436,9	0,043
437,4	0,043
437,8	0,043
438,3	0,043
438,8	0,043
439,2	0,043
439,7	0,042
440,1	0,042
440,6	0,042
441	0,041
441,5	0,042
441,9	0,042
442,4	0,041
442,8	0,041
443,3	0,041
443,7	0,042
444,2	0,042
444,7	0,041
445,1	0,041
445,6	0,042
446	0,041
446,5	0,042
446,9	0,042
447,4	0,042
447,8	0,042
448,3	0,042
448,7	0,042
449,2	0,042
449,6	0,042
450,1	0,041
450,6	0,041
451	0,041
451,5	0,041
451,9	0,041
452,4	0,041
452,8	0,04
453,3	0,041
453,7	0,041
454,2	0,041
454,6	0,04
455,1	0,04
455,5	0,04
456	0,04
456,4	0,04
456,9	0,04
457,3	0,04
457,8	0,04
458,3	0,04
458,7	0,039
459,2	0,039
459,6	0,039
460,1	0,039
460,5	0,039
461	0,039
461,4	0,039
461,9	0,04
462,3	0,039
462,8	0,039
463,2	0,039
463,7	0,039
464,1	0,039
464,6	0,039
465	0,039
465,5	0,039
466	0,038
466,4	0,039
466,9	0,038
467,3	0,038
467,8	0,038
468,2	0,038
468,7	0,038
469,1	0,038
469,6	0,038
470	0,038
470,5	0,038
470,9	0,038
471,4	0,038
471,8	0,038
472,3	0,039
472,7	0,039
473,2	0,039
473,6	0,039
474,1	0,038
474,5	0,039
475	0,038
475,4	0,038
475,9	0,038
476,4	0,037
476,8	0,037
477,3	0,037
477,7	0,037
478,2	0,037
478,6	0,037
479,1	0,037
479,5	0,037
480	0,038
480,4	0,037
480,9	0,037
481,3	0,037
481,8	0,037
482,2	0,037
482,7	0,038
483,1	0,038
483,6	0,039
484	0,039
484,5	0,039
484,9	0,037
485,4	0,036
485,8	0,035
486,3	0,035
486,7	0,034
487,2	0,032
487,6	0,032
488,1	0,033
488,5	0,034
489	0,034
489,4	0,035
489,9	0,035
490,4	0,035
490,8	0,035
491,3	0,035
491,7	0,035
492,2	0,034
492,6	0,034
493,1	0,034
493,5	0,033
494	0,033
494,4	0,033
494,9	0,033
495,3	0,034
495,8	0,035
496,2	0,035
496,7	0,035
497,1	0,035
497,6	0,035
498	0,035
498,5	0,035
498,9	0,034
499,4	0,034
499,8	0,034
500,3	0,034
500,7	0,034
501,2	0,034
501,6	0,034
502,1	0,034
502,5	0,034
503	0,034
503,4	0,034
503,9	0,034
504,3	0,034
504,8	0,033
505,2	0,033
505,7	0,032
506,1	0,032
506,6	0,033
507	0,033
507,5	0,033
507,9	0,033
508,4	0,034
508,8	0,034
509,3	0,034
509,7	0,034
510,2	0,034
510,6	0,034
511,1	0,034
511,5	0,033
512	0,033
512,4	0,033
512,9	0,032
513,3	0,032
513,8	0,032
514,2	0,032
514,7	0,032
515,1	0,032
515,6	0,032
516	0,032
516,5	0,033
516,9	0,033
517,4	0,033
517,8	0,033
518,3	0,032
518,7	0,033
519,2	0,033
519,6	0,032
520,1	0,032
520,5	0,032
521	0,031
521,4	0,032
521,9	0,032
522,3	0,032
522,8	0,032
523,2	0,032
523,7	0,032
524,1	0,032
524,6	0,032
525	0,032
525,5	0,032
525,9	0,031
526,4	0,031
526,8	0,031
527,3	0,031
527,7	0,032
528,2	0,031
528,6	0,031
529,1	0,031
529,5	0,032
530	0,032
530,4	0,032
530,9	0,031
531,3	0,032
531,8	0,032
532,2	0,032
532,6	0,031
533,1	0,031
533,5	0,03
534	0,03
534,4	0,03
534,9	0,03
535,3	0,03
535,8	0,03
536,2	0,03
536,7	0,03
537,1	0,03
537,6	0,03
538	0,029
538,5	0,029
538,9	0,029
539,4	0,029
539,8	0,029
540,3	0,029
540,7	0,029
541,2	0,03
541,6	0,03
542,1	0,03
542,5	0,029
543	0,029
543,4	0,029
543,9	0,029
544,3	0,028
544,8	0,028
545,2	0,028
545,7	0,029
546,1	0,029
546,5	0,029
547	0,029
547,4	0,029
547,9	0,029
548,3	0,029
548,8	0,028
549,2	0,028
549,7	0,028
550,1	0,028
550,6	0,028
551	0,029
551,5	0,029
551,9	0,029
552,4	0,029
552,8	0,029
553,3	0,029
553,7	0,029
554,2	0,028
554,6	0,028
555,1	0,028
555,5	0,028
555,9	0,027
556,4	0,028
556,8	0,027
557,3	0,028
557,7	0,027
558,2	0,028
558,6	0,028
559,1	0,028
559,5	0,028
560	0,028
560,4	0,027
560,9	0,028
561,3	0,027
561,8	0,028
562,2	0,027
562,7	0,027
563,1	0,027
563,6	0,027
564	0,027
564,4	0,027
564,9	0,027
565,3	0,027
565,8	0,027
566,2	0,027
566,7	0,027
567,1	0,028
567,6	0,028
568	0,028
568,5	0,028
568,9	0,027
569,4	0,027
569,8	0,027
570,3	0,026
570,7	0,026
571,1	0,025
571,6	0,026
572	0,026
572,5	0,026
572,9	0,026
573,4	0,025
573,8	0,025
574,3	0,025
574,7	0,025
575,2	0,025
575,6	0,025
576,1	0,025
576,5	0,025
576,9	0,025
577,4	0,025
577,8	0,025
578,3	0,025
578,7	0,025
579,2	0,025
579,6	0,025
580,1	0,026
580,5	0,025
581	0,025
581,4	0,024
581,9	0,023
582,3	0,023
582,7	0,023
583,2	0,022
583,6	0,023
584,1	0,023
584,5	0,023
585	0,023
585,4	0,024
585,9	0,024
586,3	0,023
586,8	0,023
587,2	0,024
587,6	0,024
588,1	0,024
588,5	0,023
589	0,023
589,4	0,023
589,9	0,023
590,3	0,023
590,8	0,023
591,2	0,024
591,7	0,024
592,1	0,023
592,5	0,023
593	0,023
593,4	0,024
593,9	0,023
594,3	0,023
594,8	0,023
595,2	0,023
595,7	0,023
596,1	0,023
596,6	0,022
597	0,022
597,4	0,023
597,9	0,022
598,3	0,022
598,8	0,022
599,2	0,022
599,7	0,022
600,1	0,022
600,6	0,022
601	0,022
601,4	0,022
601,9	0,023
602,3	0,022
602,8	0,022
603,2	0,022
603,7	0,022
604,1	0,022
604,6	0,022
605	0,022
605,4	0,022
605,9	0,022
606,3	0,022
606,8	0,022
607,2	0,022
607,7	0,023
608,1	0,023
608,6	0,023
609	0,023
609,4	0,023
609,9	0,023
610,3	0,023
610,8	0,023
611,2	0,023
611,7	0,023
612,1	0,023
612,6	0,023
613	0,023
613,4	0,023
613,9	0,023
614,3	0,022
614,8	0,022
615,2	0,022
615,7	0,022
616,1	0,022
616,6	0,022
617	0,022
617,4	0,022
617,9	0,023
618,3	0,022
618,8	0,022
619,2	0,022
619,7	0,021
620,1	0,022
620,5	0,022
621	0,021
621,4	0,021
621,9	0,021
622,3	0,021
622,8	0,021
623,2	0,02
623,6	0,02
624,1	0,02
624,5	0,02
625	0,02
625,4	0,02
625,9	0,021
626,3	0,021
626,8	0,021
627,2	0,021
627,6	0,021
628,1	0,021
628,5	0,021
629	0,021
629,4	0,021
629,9	0,021
630,3	0,021
630,7	0,021
631,2	0,021
631,6	0,021
632,1	0,021
632,5	0,021
633	0,021
633,4	0,021
633,8	0,021
634,3	0,021
634,7	0,021
635,2	0,021
635,6	0,021
636,1	0,021
636,5	0,021
636,9	0,021
637,4	0,02
637,8	0,02
638,3	0,02
638,7	0,02
639,2	0,02
639,6	0,02
640	0,02
640,5	0,02
640,9	0,021
641,4	0,02
641,8	0,021
642,2	0,021
642,7	0,021
643,1	0,021
643,6	0,021
644	0,021
644,5	0,021
644,9	0,02
645,3	0,02
645,8	0,02
646,2	0,02
646,7	0,02
647,1	0,02
647,6	0,02
648	0,02
648,4	0,021
648,9	0,021
649,3	0,021
649,8	0,021
650,2	0,021
650,6	0,021
651,1	0,021
651,5	0,02
652	0,021
652,4	0,021
652,9	0,021
653,3	0,023
653,7	0,029
654,2	0,019
654,6	0,013
655,1	0,01
655,5	0,007
655,9	0,007
656,4	0,006
656,8	0,002
657,3	0,003
657,7	0,005
658,2	0,009
658,6	0,016
659	0,018
659,5	0,019
659,9	0,019
660,4	0,02
660,8	0,02
661,2	0,02
661,7	0,02
662,1	0,019
662,6	0,019
663	0,019
663,4	0,018
663,9	0,018
664,3	0,018
664,8	0,018
665,2	0,019
665,6	0,019
666,1	0,02
666,5	0,02
667	0,02
667,4	0,02
667,9	0,02
668,3	0,02
668,7	0,02
669,2	0,02
669,6	0,019
670,1	0,019
670,5	0,019
670,9	0,019
671,4	0,019
671,8	0,018
672,3	0,019
672,7	0,019
673,1	0,019
673,6	0,019
674	0,019
674,5	0,019
674,9	0,019
675,3	0,019
675,8	0,019
676,2	0,02
676,7	0,019
677,1	0,019
677,5	0,019
678	0,019
678,4	0,02
678,9	0,019
679,3	0,019
679,7	0,019
680,2	0,019
680,6	0,019
681,1	0,019
681,5	0,019
681,9	0,019
682,4	0,019
682,8	0,019
683,3	0,019
683,7	0,019
684,1	0,019
684,6	0,019
685	0,018
685,5	0,018
685,9	0,018
686,3	0,018
686,8	0,018
687,2	0,018
687,7	0,018
688,1	0,018
688,5	0,018
689	0,018
689,4	0,018
689,9	0,018
690,3	0,018
690,7	0,019
691,2	0,018
691,6	0,018
692	0,019
692,5	0,019
692,9	0,018
693,4	0,018
693,8	0,018
694,2	0,018
694,7	0,018
695,1	0,018
695,6	0,018
696	0,018
696,4	0,018
696,9	0,018
697,3	0,018
697,8	0,018
698,2	0,018
698,6	0,018
699,1	0,018
699,5	0,017
699,9	0,017
700,4	0,017
700,8	0,017
701,3	0,017
701,7	0,018
702,1	0,018
702,6	0,018
703	0,018
703,5	0,018
703,9	0,018
704,3	0,017
704,8	0,017
705,2	0,017
705,6	0,018
706,1	0,018
706,5	0,018
707	0,018
707,4	0,018
707,8	0,018
708,3	0,018
708,7	0,017
709,2	0,017
709,6	0,017
710	0,017
710,5	0,017
710,9	0,017
711,3	0,017
711,8	0,017
712,2	0,017
712,7	0,017
713,1	0,018
713,5	0,018
714	0,018
714,4	0,018
714,8	0,018
715,3	0,017
715,7	0,017
716,2	0,018
716,6	0,017
717	0,017
717,5	0,017
717,9	0,017
718,3	0,017
718,8	0,017
719,2	0,016
719,7	0,016
720,1	0,017
720,5	0,017
721	0,017
721,4	0,017
721,8	0,017
722,3	0,017
722,7	0,017
723,2	0,017
723,6	0,017
724	0,017
724,5	0,017
724,9	0,017
725,3	0,018
725,8	0,017
726,2	0,017
726,7	0,017
727,1	0,016
727,5	0,017
728	0,017
728,4	0,017
728,8	0,016
729,3	0,016
729,7	0,017
730,1	0,017
730,6	0,016
731	0,016
731,5	0,017
731,9	0,017
732,3	0,017
732,8	0,017
733,2	0,017
733,6	0,017
734,1	0,017
734,5	0,017
734,9	0,017
735,4	0,017
735,8	0,017
736,3	0,017
736,7	0,017
737,1	0,017
737,6	0,017
738	0,016
738,4	0,016
738,9	0,015
739,3	0,015
739,7	0,016
740,2	0,016
740,6	0,016
741,1	0,016
741,5	0,015
741,9	0,016
742,4	0,016
742,8	0,016
743,2	0,016
743,7	0,016
744,1	0,016
744,5	0,016
745	0,016
745,4	0,016
745,8	0,016
746,3	0,016
746,7	0,016
747,2	0,016
747,6	0,016
748	0,016
748,5	0,016
748,9	0,016
749,3	0,016
749,8	0,016
750,2	0,016
750,6	0,016
751,1	0,016
751,5	0,016
751,9	0,016
752,4	0,016
752,8	0,016
753,3	0,016
753,7	0,016
754,1	0,016
754,6	0,015
755	0,015
755,4	0,015
755,9	0,016
756,3	0,016
756,7	0,016
757,2	0,016
757,6	0,016
758	0,016
758,5	0,016
758,9	0,016
759,3	0,016
759,8	0,016
760,2	0,016
760,6	0,016
761,1	0,017
761,5	0,017
761,9	0,017
762,4	0,017
762,8	0,017
763,3	0,017
763,7	0,017
764,1	0,016
764,6	0,016
765	0,015
765,4	0,014
765,9	0,014
766,3	0,014
766,7	0,014
767,2	0,014
767,6	0,014
768	0,014
768,5	0,014
768,9	0,014
769,3	0,014
769,8	0,014
770,2	0,014
770,6	0,015
771,1	0,015
771,5	0,016
771,9	0,016
772,4	0,017
772,8	0,017
773,2	0,017
773,7	0,017
774,1	0,017
774,5	0,018
775	0,017
775,4	0,017
775,8	0,017
776,3	0,017
776,7	0,017
777,1	0,017
777,6	0,017
778	0,017
778,4	0,017
778,9	0,016
779,3	0,016
779,7	0,016
780,2	0,016
780,6	0,016
781	0,016
781,5	0,016
781,9	0,017
782,3	0,017
782,8	0,017
783,2	0,017
783,6	0,017
784,1	0,016
784,5	0,016
784,9	0,016
785,4	0,015
785,8	0,015
786,2	0,015
786,7	0,015
787,1	0,015
787,5	0,014
788	0,015
788,4	0,014
788,8	0,014
789,3	0,014
789,7	0,014
790,1	0,015
790,6	0,014
791	0,014
791,4	0,014
791,9	0,014
792,3	0,015
792,7	0,015
793,2	0,015
793,6	0,015
794	0,015
794,5	0,015
794,9	0,015
795,3	0,015
795,8	0,015
796,2	0,015
796,6	0,015
797,1	0,015
797,5	0,016
797,9	0,015
798,4	0,015
798,8	0,016
799,2	0,016
799,7	0,015
800,1	0,015
800,5	0,015
801	0,015
801,4	0,015
801,8	0,015
802,2	0,015
802,7	0,015
803,1	0,015
803,5	0,015
804	0,015
804,4	0,015
804,8	0,015
805,3	0,014
805,7	0,014
806,1	0,013
806,6	0,013
807	0,013
807,4	0,013
807,9	0,013
808,3	0,013
808,7	0,014
809,2	0,014
809,6	0,014
810	0,014
810,4	0,014
810,9	0,014
811,3	0,014
811,7	0,014
812,2	0,014
812,6	0,014
813	0,014
813,5	0,014
813,9	0,014
814,3	0,014
814,8	0,014
815,2	0,013
815,6	0,013
816,1	0,014
816,5	0,014
816,9	0,014
817,3	0,013
817,8	0,013
818,2	0,014
818,6	0,014
819,1	0,014
819,5	0,015
819,9	0,015
820,4	0,015
820,8	0,015
821,2	0,015
821,7	0,016
822,1	0,015
822,5	0,016
822,9	0,016
823,4	0,015
823,8	0,015
824,2	0,015
824,7	0,015
825,1	0,014
825,5	0,014
826	0,014
826,4	0,014
826,8	0,014
827,3	0,014
827,7	0,014
828,1	0,014
828,5	0,014
829	0,014
829,4	0,014
829,8	0,014
830,3	0,014
830,7	0,014
831,1	0,014
831,6	0,014
832	0,014
832,4	0,014
832,8	0,014
833,3	0,014
833,7	0,014
834,1	0,014
834,6	0,014
835	0,014
835,4	0,014
835,8	0,014
836,3	0,014
836,7	0,014
837,1	0,014
837,6	0,014
838	0,015
838,4	0,015
838,9	0,015
839,3	0,015
839,7	0,015
840,1	0,014
840,6	0,014
841	0,014
841,4	0,014
841,9	0,013
842,3	0,013
842,7	0,013
843,1	0,013
843,6	0,013
844	0,013
844,4	0,013
844,9	0,013
845,3	0,013
845,7	0,013
846,2	0,013
846,6	0,013
847	0,013
847,4	0,014
847,9	0,014
848,3	0,015
848,7	0,015
849,2	0,014
849,6	0,015
850	0,015
850,4	0,015
850,9	0,015
851,3	0,015
851,7	0,015
852,2	0,015
852,6	0,015
853	0,014
853,4	0,014
853,9	0,014
854,3	0,013
854,7	0,013
855,2	0,013
855,6	0,013
856	0,013
856,4	0,013
856,9	0,013
857,3	0,013
857,7	0,013
858,2	0,013
858,6	0,013
859	0,014
859,4	0,013
859,9	0,013
860,3	0,013
860,7	0,013
861,1	0,013
861,6	0,013
862	0,014
862,4	0,014
862,9	0,014
863,3	0,015
863,7	0,014
864,1	0,014
864,6	0,014
865	0,014
865,4	0,014
865,9	0,014
866,3	0,014
866,7	0,014
867,1	0,013
867,6	0,013
868	0,013
868,4	0,012
868,8	0,012
869,3	0,013
869,7	0,013
870,1	0,013
870,6	0,013
871	0,013
871,4	0,013
871,8	0,013
872,3	0,012
872,7	0,012
873,1	0,012
873,5	0,012
874	0,012
874,4	0,012
874,8	0,012
875,3	0,013
875,7	0,013
876,1	0,013
876,5	0,013
877	0,013
877,4	0,014
877,8	0,014
878,2	0,014
878,7	0,014
879,1	0,014
879,5	0,014
879,9	0,014
880,4	0,014
880,8	0,014
881,2	0,014
881,7	0,014
882,1	0,014
882,5	0,014
882,9	0,014
883,4	0,014
883,8	0,014
884,2	0,014
884,6	0,014
885,1	0,014
885,5	0,013
885,9	0,013
886,3	0,013
886,8	0,013
887,2	0,013
887,6	0,012
888	0,012
888,5	0,012
888,9	0,012
889,3	0,013
889,8	0,012
890,2	0,012
890,6	0,012
891	0,012
891,5	0,012
891,9	0,012
892,3	0,013
892,7	0,013
893,2	0,013
893,6	0,014
894	0,014
894,4	0,013
894,9	0,013
895,3	0,013
895,7	0,012
896,1	0,012
896,6	0,012
897	0,012
897,4	0,012
897,8	0,013
898,3	0,013
898,7	0,013
899,1	0,013
899,5	0,013
900	0,013
900,4	0,014
900,8	0,013
901,2	0,013
901,7	0,012
902,1	0,012
902,5	0,012
902,9	0,012
903,4	0,011
903,8	0,011
904,2	0,011
904,6	0,012
905,1	0,012
905,5	0,012
905,9	0,012
906,3	0,013
906,8	0,013
907,2	0,013
907,6	0,012
908	0,012
908,5	0,012
908,9	0,012
909,3	0,012
909,7	0,013
910,2	0,013
910,6	0,013
911	0,013
911,4	0,013
911,9	0,013
912,3	0,013
912,7	0,013
913,1	0,013
913,6	0,013
914	0,013
914,4	0,013
914,8	0,013
915,3	0,014
915,7	0,014
916,1	0,014
916,5	0,014
916,9	0,014
917,4	0,014
917,8	0,014
918,2	0,013
918,6	0,013
919,1	0,012
919,5	0,013
919,9	0,013
920,3	0,013
920,8	0,013
921,2	0,012
921,6	0,012
922	0,012
922,5	0,011
922,9	0,012
923,3	0,011
923,7	0,011
924,2	0,011
924,6	0,012
925	0,012
925,4	0,013
925,8	0,012
926,3	0,013
926,7	0,013
927,1	0,013
927,5	0,013
928	0,012
928,4	0,012
928,8	0,012
929,2	0,012
929,7	0,012
930,1	0,012
930,5	0,012
930,9	0,012
931,3	0,012
931,8	0,012
932,2	0,011
932,6	0,011
933	0,011
933,5	0,011
933,9	0,011
934,3	0,01
934,7	0,01
935,2	0,01
935,6	0,01
936	0,01
936,4	0,01
936,8	0,01
937,3	0,011
937,7	0,011
938,1	0,01
938,5	0,01
939	0,01
939,4	0,01
939,8	0,01
940,2	0,01
940,6	0,011
941,1	0,012
941,5	0,012
941,9	0,013
942,3	0,013
942,8	0,012
943,2	0,012
943,6	0,012
944	0,012
944,4	0,012
944,9	0,011
945,3	0,012
945,7	0,012
946,1	0,012
946,6	0,012
947	0,013
947,4	0,013
947,8	0,013
948,2	0,013
948,7	0,013
949,1	0,012
949,5	0,013
949,9	0,013
950,3	0,013
950,8	0,013
951,2	0,013
951,6	0,014
952	0,014
952,5	0,014
952,9	0,014
953,3	0,015
953,7	0,015
954,1	0,015
954,6	0,015
955	0,015
955,4	0,016
955,8	0,015
956,2	0,015
956,7	0,014
957,1	0,014
957,5	0,014
957,9	0,014
958,3	0,014
958,8	0,013
959,2	0,013
959,6	0,013
960	0,013
960,5	0,012
960,9	0,012
961,3	0,012
961,7	0,012
962,1	0,013
962,6	0,013
963	0,012
963,4	0,013
963,8	0,012
964,2	0,012
964,7	0,012
965,1	0,012
965,5	0,012
965,9	0,012
966,3	0,012
966,8	0,013
967,2	0,013
967,6	0,013
968	0,014
968,4	0,014
968,9	0,015
969,3	0,015
969,7	0,015
970,1	0,015
970,5	0,015
971	0,016
971,4	0,015
971,8	0,015
972,2	0,014
972,6	0,015
973,1	0,015
973,5	0,014
973,9	0,014
974,3	0,013
974,7	0,013
975,2	0,013
975,6	0,013
976	0,013
976,4	0,013
976,8	0,013
977,3	0,013
977,7	0,013
978,1	0,014
978,5	0,014
978,9	0,013
979,4	0,013
979,8	0,013
980,2	0,013
980,6	0,013
981	0,013
981,5	0,012
981,9	0,013
982,3	0,013
982,7	0,013
983,1	0,013
983,6	0,013
984	0,013
984,4	0,013
984,8	0,013
985,2	0,013
985,6	0,013
986,1	0,013
986,5	0,014
986,9	0,014
987,3	0,014
987,7	0,014
988,2	0,014
988,6	0,014
989	0,013
989,4	0,012
989,8	0,012
990,3	0,012
990,7	0,012
991,1	0,013
991,5	0,013
991,9	0,013
992,3	0,013
992,8	0,013
993,2	0,014
993,6	0,013
994	0,013
994,4	0,013
994,9	0,013
995,3	0,013
995,7	0,013
996,1	0,012
996,5	0,013
996,9	0,013
997,4	0,013
997,8	0,013
998,2	0,013
998,6	0,013
999	0,012
999,5	0,011
999,9	0,011
1000,3	0,01
1000,7	0,01
1001,1	0,01
1001,5	0,01
1002	0,011
1002,4	0,012
1002,8	0,012
1003,2	0,012
1003,6	0,013
1004	0,013
1004,5	0,013
1004,9	0,013
1005,3	0,013
1005,7	0,013
1006,1	0,013
1006,6	0,013
1007	0,013
1007,4	0,013
1007,8	0,013
1008,2	0,012
1008,6	0,012
1009,1	0,012
1009,5	0,011
1009,9	0,011
1010,3	0,011
1010,7	0,011
1011,1	0,011
1011,6	0,012
1012	0,012
1012,4	0,012
1012,8	0,012
1013,2	0,012
1013,6	0,012
1014,1	0,012
1014,5	0,012
1014,9	0,012
1015,3	0,012
1015,7	0,012
1016,1	0,012
1016,6	0,012
1017	0,012
1017,4	0,012
1017,8	0,012
1018,2	0,012
1018,6	0,012
1019,1	0,012
1019,5	0,012
1019,9	0,012
1020,3	0,013
1020,7	0,012
1021,1	0,012
1021,6	0,011
1022	0,011
1022,4	0,011
1022,8	0,01
1023,2	0,01
1023,6	0,01
1024,1	0,011
1024,5	0,012
1024,9	0,012
1025,3	0,013
1025,7	0,013
1026,1	0,013
1026,6	0,013
1027	0,012
1027,4	0,012
1027,8	0,012
1028,2	0,011
1028,6	0,011
1029	0,012
1029,5	0,012
1029,9	0,013
1030,3	0,013
1030,7	0,013
1031,1	0,013
1031,5	0,013
1032	0,013
1032,4	0,013
1032,8	0,013
1033,2	0,013
1033,6	0,013
1034	0,013
1034,4	0,013
1034,9	0,013
1035,3	0,013
1035,7	0,013
1036,1	0,014
1036,5	0,013
1036,9	0,013
1037,4	0,014
1037,8	0,014
1038,2	0,014
1038,6	0,014
1039	0,013
1039,4	0,014
1039,8	0,015
1040,3	0,015
1040,7	0,015
1041,1	0,015
1041,5	0,016
1041,9	0,016
1042,3	0,015
1042,7	0,014
1043,2	0,014
1043,6	0,015
1044	0,015
1044,4	0,015
1044,8	0,014
1045,2	0,015
1045,6	0,016
1046,1	0,015
1046,5	0,015
1046,9	0,016
1047,3	0,015
1047,7	0,016
1048,1	0,016
1048,5	0,016
1049	0,016
1049,4	0,017
1049,8	0,016
1050,2	0,017
1050,6	0,017
1051	0,016
1051,4	0,016
1051,9	0,016
1052,3	0,016
1052,7	0,016
1053,1	0,016
1053,5	0,016
1053,9	0,015
1054,3	0,016
1054,8	0,014
1055,2	0,014
1055,6	0,014
1056	0,014
1056,4	0,014
1056,8	0,015
1057,2	0,014
1057,6	0,015
1058,1	0,016
1058,5	0,016
1058,9	0,016
1059,3	0,017
1059,7	0,017
1060,1	0,018
1060,5	0,017
1061	0,017
1061,4	0,017
1061,8	0,017
1062,2	0,015
1062,6	0,015
1063	0,014
1063,4	0,016
1063,8	0,016
1064,3	0,016
1064,7	0,016
1065,1	0,016
1065,5	0,016
1065,9	0,016
1066,3	0,016
1066,7	0,015
1067,1	0,015
1067,6	0,015
1068	0,015
1068,4	0,016
1068,8	0,015
1069,2	0,014
1069,6	0,015
1070	0,016
1070,4	0,015
1070,9	0,016
1071,3	0,016
1071,7	0,017
1072,1	0,017
1072,5	0,018
1072,9	0,018
1073,3	0,018
1073,7	0,017
1074,2	0,018
1074,6	0,018
1075	0,018
1075,4	0,018
1075,8	0,017
1076,2	0,017
1076,6	0,015
1077	0,016
1077,5	0,014
1077,9	0,014
1078,3	0,014
1078,7	0,014
1079,1	0,016
1079,5	0,016
1079,9	0,016
1080,3	0,017
1080,7	0,017
1081,2	0,017
1081,6	0,019
1082	0,018
1082,4	0,017
1082,8	0,018
1083,2	0,02
1083,6	0,02
1084	0,021
1084,5	0,02
1084,9	0,02
1085,3	0,021
1085,7	0,022
1086,1	0,021
1086,5	0,022
1086,9	0,02
1087,3	0,019
1087,7	0,02
1088,2	0,02
1088,6	0,018
1089	0,018
1089,4	0,019
1089,8	0,021
1090,2	0,022
1090,6	0,022
1091	0,024
1091,4	0,026
1091,9	0,027
1092,3	0,024
1092,7	0,022
1093,1	0,022
1093,5	0,023
1093,9	0,025
1094,3	0,023
1094,7	0,023
1095,1	0,029
1095,5	0,034
1096	0,035
1096,4	0,038
1096,8	0,037
1097,2	0,041
1097,6	0,036
1098	0,032
1098,4	0,036
1098,8	0,035
1099,2	0,034
1099,6	0,033
1100,1	0,032
1100,5	0,04
1100,9	0,038
1101,3	0,038
1101,7	0,051
1102,1	0,049
1102,5	0,043
1102,9	0,048
1103,3	0,043
1103,7	0,056
1104,2	0,052
1104,6	0,049
1105	0,056
1105,4	0,069
1105,8	0,074
1106,2	0,093
1106,6	0,097
1107	0,096
1107,4	0,104
1107,8	0,091
1108,3	-0,176
