Data from Absorbance_119.txt Node
Date: Fri Nov 13 19:02:18 MSK 2020
User: vat
Spectrometer: MAYP114033
Trigger mode: 0
Integration Time (sec): 8,000000E-3
Scans to average: 10
Electric dark correction enabled: true
Nonlinearity correction enabled: false
Boxcar width: 3
XAxis mode: Wavelengths
Number of Pixels in Spectrum: 2068
>>>>>Begin Spectral Data<<<<<
199,4	-0
199,9	0,303
200,4	0,103
200,8	0,041
201,3	0,044
201,8	0,018
202,2	0,022
202,7	0,026
203,2	0,024
203,6	0,027
204,1	0,039
204,6	0,023
205	0,034
205,5	0,025
206	0,023
206,4	0,017
206,9	0,021
207,4	0,014
207,8	0,022
208,3	0,014
208,8	0,025
209,2	0,024
209,7	0,011
210,2	-0,003
210,6	-0,011
211,1	0
211,5	0,002
212	-0,01
212,5	-0,008
212,9	0,01
213,4	0,006
213,9	0,024
214,3	0,018
214,8	0,009
215,3	0,01
215,7	0,006
216,2	0,006
216,7	0,007
217,1	-0,002
217,6	0,004
218,1	0,005
218,5	0,006
219	-0,004
219,5	0,002
219,9	0,013
220,4	0,016
220,9	0,011
221,3	0,014
221,8	0,013
222,3	0,028
222,7	0,019
223,2	0,029
223,6	0,027
224,1	0,029
224,6	0,04
225	0,045
225,5	0,047
226	0,054
226,4	0,054
226,9	0,059
227,4	0,041
227,8	0,029
228,3	0,023
228,8	0,03
229,2	0,02
229,7	0,016
230,2	0,004
230,6	0,018
231,1	0,028
231,5	0,032
232	0,019
232,5	0,031
232,9	0,031
233,4	0,048
233,9	0,043
234,3	0,042
234,8	0,043
235,3	0,033
235,7	0,025
236,2	0,032
236,7	0,035
237,1	0,041
237,6	0,034
238,1	0,03
238,5	0,043
239	0,049
239,4	0,051
239,9	0,043
240,4	0,046
240,8	0,057
241,3	0,063
241,8	0,077
242,2	0,075
242,7	0,069
243,2	0,063
243,6	0,062
244,1	0,058
244,6	0,06
245	0,053
245,5	0,06
245,9	0,055
246,4	0,065
246,9	0,065
247,3	0,061
247,8	0,057
248,3	0,063
248,7	0,068
249,2	0,08
249,7	0,08
250,1	0,081
250,6	0,083
251	0,085
251,5	0,086
252	0,082
252,4	0,08
252,9	0,081
253,4	0,08
253,8	0,082
254,3	0,084
254,8	0,083
255,2	0,086
255,7	0,087
256,1	0,089
256,6	0,092
257,1	0,093
257,5	0,095
258	0,099
258,5	0,102
258,9	0,104
259,4	0,108
259,9	0,111
260,3	0,115
260,8	0,119
261,2	0,122
261,7	0,125
262,2	0,129
262,6	0,133
263,1	0,136
263,6	0,139
264	0,142
264,5	0,147
264,9	0,151
265,4	0,155
265,9	0,158
266,3	0,162
266,8	0,166
267,3	0,17
267,7	0,174
268,2	0,178
268,7	0,182
269,1	0,187
269,6	0,192
270	0,197
270,5	0,201
271	0,204
271,4	0,207
271,9	0,212
272,4	0,215
272,8	0,218
273,3	0,221
273,7	0,225
274,2	0,229
274,7	0,233
275,1	0,236
275,6	0,239
276,1	0,241
276,5	0,245
277	0,247
277,4	0,25
277,9	0,253
278,4	0,255
278,8	0,257
279,3	0,259
279,8	0,261
280,2	0,262
280,7	0,263
281,1	0,264
281,6	0,265
282,1	0,266
282,5	0,266
283	0,266
283,4	0,267
283,9	0,266
284,4	0,265
284,8	0,264
285,3	0,262
285,8	0,261
286,2	0,26
286,7	0,258
287,1	0,256
287,6	0,254
288,1	0,251
288,5	0,249
289	0,245
289,5	0,242
289,9	0,238
290,4	0,234
290,8	0,23
291,3	0,227
291,8	0,222
292,2	0,218
292,7	0,213
293,1	0,208
293,6	0,203
294,1	0,198
294,5	0,192
295	0,186
295,5	0,181
295,9	0,176
296,4	0,171
296,8	0,165
297,3	0,159
297,8	0,154
298,2	0,149
298,7	0,143
299,1	0,137
299,6	0,132
300,1	0,127
300,5	0,122
301	0,117
301,5	0,112
301,9	0,107
302,4	0,103
302,8	0,097
303,3	0,093
303,8	0,089
304,2	0,084
304,7	0,08
305,1	0,076
305,6	0,072
306,1	0,069
306,5	0,065
307	0,061
307,4	0,058
307,9	0,055
308,4	0,052
308,8	0,049
309,3	0,047
309,8	0,044
310,2	0,042
310,7	0,041
311,1	0,038
311,6	0,036
312,1	0,035
312,5	0,032
313	0,031
313,4	0,03
313,9	0,028
314,4	0,026
314,8	0,025
315,3	0,024
315,7	0,023
316,2	0,022
316,7	0,02
317,1	0,019
317,6	0,019
318	0,018
318,5	0,017
319	0,017
319,4	0,016
319,9	0,015
320,3	0,015
320,8	0,014
321,3	0,014
321,7	0,013
322,2	0,012
322,6	0,012
323,1	0,012
323,6	0,012
324	0,012
324,5	0,012
324,9	0,012
325,4	0,012
325,9	0,011
326,3	0,011
326,8	0,011
327,2	0,011
327,7	0,011
328,2	0,011
328,6	0,011
329,1	0,011
329,5	0,01
330	0,01
330,5	0,01
330,9	0,01
331,4	0,009
331,8	0,009
332,3	0,009
332,8	0,009
333,2	0,009
333,7	0,009
334,1	0,009
334,6	0,009
335,1	0,009
335,5	0,009
336	0,008
336,4	0,009
336,9	0,009
337,4	0,008
337,8	0,008
338,3	0,008
338,7	0,008
339,2	0,008
339,7	0,008
340,1	0,008
340,6	0,008
341	0,007
341,5	0,007
342	0,007
342,4	0,007
342,9	0,008
343,3	0,008
343,8	0,008
344,2	0,008
344,7	0,008
345,2	0,008
345,6	0,008
346,1	0,008
346,5	0,008
347	0,008
347,5	0,008
347,9	0,008
348,4	0,008
348,8	0,008
349,3	0,008
349,8	0,008
350,2	0,008
350,7	0,008
351,1	0,008
351,6	0,008
352	0,007
352,5	0,008
353	0,008
353,4	0,008
353,9	0,007
354,3	0,008
354,8	0,008
355,3	0,008
355,7	0,008
356,2	0,007
356,6	0,007
357,1	0,008
357,5	0,008
358	0,008
358,5	0,008
358,9	0,008
359,4	0,008
359,8	0,008
360,3	0,008
360,8	0,008
361,2	0,009
361,7	0,009
362,1	0,009
362,6	0,009
363	0,009
363,5	0,008
364	0,008
364,4	0,008
364,9	0,007
365,3	0,007
365,8	0,008
366,3	0,008
366,7	0,008
367,2	0,007
367,6	0,008
368,1	0,008
368,5	0,007
369	0,007
369,5	0,006
369,9	0,006
370,4	0,007
370,8	0,007
371,3	0,007
371,7	0,007
372,2	0,007
372,7	0,007
373,1	0,007
373,6	0,007
374	0,007
374,5	0,007
374,9	0,007
375,4	0,007
375,9	0,007
376,3	0,007
376,8	0,007
377,2	0,007
377,7	0,007
378,2	0,007
378,6	0,007
379,1	0,007
379,5	0,007
380	0,007
380,4	0,007
380,9	0,006
381,4	0,006
381,8	0,006
382,3	0,006
382,7	0,006
383,2	0,007
383,6	0,007
384,1	0,007
384,6	0,007
385	0,007
385,5	0,007
385,9	0,007
386,4	0,007
386,8	0,007
387,3	0,007
387,7	0,008
388,2	0,008
388,7	0,009
389,1	0,009
389,6	0,009
390	0,008
390,5	0,008
390,9	0,007
391,4	0,007
391,9	0,007
392,3	0,007
392,8	0,007
393,2	0,007
393,7	0,007
394,1	0,008
394,6	0,008
395,1	0,008
395,5	0,007
396	0,007
396,4	0,007
396,9	0,007
397,3	0,006
397,8	0,006
398,2	0,005
398,7	0,006
399,2	0,006
399,6	0,006
400,1	0,006
400,5	0,006
401	0,006
401,4	0,006
401,9	0,005
402,4	0,005
402,8	0,005
403,3	0,006
403,7	0,005
404,2	0,006
404,6	0,006
405,1	0,006
405,5	0,007
406	0,007
406,5	0,007
406,9	0,006
407,4	0,007
407,8	0,006
408,3	0,006
408,7	0,006
409,2	0,006
409,6	0,005
410,1	0,005
410,6	0,005
411	0,005
411,5	0,006
411,9	0,006
412,4	0,006
412,8	0,006
413,3	0,006
413,7	0,006
414,2	0,007
414,7	0,007
415,1	0,007
415,6	0,007
416	0,007
416,5	0,007
416,9	0,007
417,4	0,007
417,8	0,007
418,3	0,007
418,8	0,007
419,2	0,007
419,7	0,006
420,1	0,007
420,6	0,007
421	0,007
421,5	0,006
421,9	0,006
422,4	0,006
422,8	0,006
423,3	0,006
423,8	0,006
424,2	0,006
424,7	0,006
425,1	0,006
425,6	0,006
426	0,006
426,5	0,006
426,9	0,005
427,4	0,006
427,9	0,006
428,3	0,005
428,8	0,005
429,2	0,005
429,7	0,005
430,1	0,006
430,6	0,005
431	0,005
431,5	0,006
431,9	0,006
432,4	0,006
432,8	0,006
433,3	0,006
433,8	0,006
434,2	0,007
434,7	0,007
435,1	0,007
435,6	0,006
436	0,006
436,5	0,006
436,9	0,006
437,4	0,005
437,8	0,005
438,3	0,005
438,8	0,006
439,2	0,006
439,7	0,006
440,1	0,006
440,6	0,006
441	0,006
441,5	0,006
441,9	0,006
442,4	0,006
442,8	0,006
443,3	0,006
443,7	0,006
444,2	0,006
444,7	0,006
445,1	0,006
445,6	0,006
446	0,007
446,5	0,007
446,9	0,007
447,4	0,007
447,8	0,007
448,3	0,007
448,7	0,007
449,2	0,006
449,6	0,006
450,1	0,006
450,6	0,006
451	0,007
451,5	0,007
451,9	0,007
452,4	0,006
452,8	0,006
453,3	0,007
453,7	0,006
454,2	0,006
454,6	0,006
455,1	0,006
455,5	0,006
456	0,006
456,4	0,006
456,9	0,006
457,3	0,006
457,8	0,005
458,3	0,005
458,7	0,005
459,2	0,006
459,6	0,005
460,1	0,005
460,5	0,006
461	0,006
461,4	0,006
461,9	0,006
462,3	0,006
462,8	0,006
463,2	0,007
463,7	0,007
464,1	0,006
464,6	0,006
465	0,006
465,5	0,006
466	0,006
466,4	0,006
466,9	0,006
467,3	0,006
467,8	0,006
468,2	0,006
468,7	0,006
469,1	0,005
469,6	0,006
470	0,006
470,5	0,006
470,9	0,005
471,4	0,005
471,8	0,006
472,3	0,006
472,7	0,007
473,2	0,007
473,6	0,007
474,1	0,007
474,5	0,007
475	0,006
475,4	0,006
475,9	0,005
476,4	0,005
476,8	0,005
477,3	0,005
477,7	0,005
478,2	0,005
478,6	0,006
479,1	0,006
479,5	0,006
480	0,006
480,4	0,006
480,9	0,006
481,3	0,006
481,8	0,005
482,2	0,005
482,7	0,005
483,1	0,005
483,6	0,006
484	0,005
484,5	0,006
484,9	0,006
485,4	0,006
485,8	0,006
486,3	0,006
486,7	0,006
487,2	0,007
487,6	0,006
488,1	0,006
488,5	0,005
489	0,005
489,4	0,005
489,9	0,005
490,4	0,004
490,8	0,005
491,3	0,005
491,7	0,006
492,2	0,006
492,6	0,007
493,1	0,007
493,5	0,008
494	0,007
494,4	0,006
494,9	0,005
495,3	0,005
495,8	0,005
496,2	0,005
496,7	0,004
497,1	0,005
497,6	0,006
498	0,006
498,5	0,006
498,9	0,006
499,4	0,006
499,8	0,005
500,3	0,005
500,7	0,005
501,2	0,005
501,6	0,005
502,1	0,005
502,5	0,005
503	0,005
503,4	0,006
503,9	0,006
504,3	0,006
504,8	0,006
505,2	0,006
505,7	0,007
506,1	0,006
506,6	0,006
507	0,006
507,5	0,005
507,9	0,005
508,4	0,005
508,8	0,005
509,3	0,005
509,7	0,005
510,2	0,005
510,6	0,006
511,1	0,006
511,5	0,005
512	0,005
512,4	0,006
512,9	0,005
513,3	0,005
513,8	0,005
514,2	0,005
514,7	0,006
515,1	0,006
515,6	0,005
516	0,005
516,5	0,005
516,9	0,005
517,4	0,005
517,8	0,005
518,3	0,005
518,7	0,005
519,2	0,005
519,6	0,005
520,1	0,005
520,5	0,005
521	0,005
521,4	0,005
521,9	0,005
522,3	0,005
522,8	0,005
523,2	0,005
523,7	0,005
524,1	0,005
524,6	0,005
525	0,005
525,5	0,004
525,9	0,005
526,4	0,004
526,8	0,005
527,3	0,005
527,7	0,005
528,2	0,005
528,6	0,005
529,1	0,004
529,5	0,004
530	0,004
530,4	0,004
530,9	0,004
531,3	0,004
531,8	0,004
532,2	0,004
532,6	0,004
533,1	0,005
533,5	0,005
534	0,005
534,4	0,005
534,9	0,005
535,3	0,005
535,8	0,005
536,2	0,005
536,7	0,005
537,1	0,005
537,6	0,005
538	0,005
538,5	0,006
538,9	0,006
539,4	0,006
539,8	0,005
540,3	0,005
540,7	0,005
541,2	0,005
541,6	0,005
542,1	0,005
542,5	0,004
543	0,004
543,4	0,004
543,9	0,004
544,3	0,004
544,8	0,004
545,2	0,004
545,7	0,005
546,1	0,005
546,5	0,005
547	0,005
547,4	0,005
547,9	0,004
548,3	0,005
548,8	0,005
549,2	0,005
549,7	0,005
550,1	0,004
550,6	0,004
551	0,005
551,5	0,005
551,9	0,005
552,4	0,005
552,8	0,005
553,3	0,005
553,7	0,005
554,2	0,004
554,6	0,004
555,1	0,004
555,5	0,005
555,9	0,005
556,4	0,005
556,8	0,005
557,3	0,005
557,7	0,005
558,2	0,005
558,6	0,005
559,1	0,004
559,5	0,004
560	0,004
560,4	0,004
560,9	0,004
561,3	0,004
561,8	0,004
562,2	0,004
562,7	0,004
563,1	0,004
563,6	0,004
564	0,004
564,4	0,004
564,9	0,004
565,3	0,004
565,8	0,003
566,2	0,004
566,7	0,004
567,1	0,004
567,6	0,004
568	0,004
568,5	0,005
568,9	0,005
569,4	0,005
569,8	0,005
570,3	0,005
570,7	0,005
571,1	0,004
571,6	0,004
572	0,004
572,5	0,005
572,9	0,005
573,4	0,005
573,8	0,005
574,3	0,005
574,7	0,005
575,2	0,005
575,6	0,005
576,1	0,005
576,5	0,005
576,9	0,005
577,4	0,005
577,8	0,005
578,3	0,005
578,7	0,005
579,2	0,004
579,6	0,004
580,1	0,004
580,5	0,004
581	0,004
581,4	0,004
581,9	0,004
582,3	0,004
582,7	0,004
583,2	0,005
583,6	0,005
584,1	0,005
584,5	0,005
585	0,005
585,4	0,005
585,9	0,005
586,3	0,005
586,8	0,005
587,2	0,005
587,6	0,005
588,1	0,005
588,5	0,004
589	0,005
589,4	0,005
589,9	0,005
590,3	0,005
590,8	0,005
591,2	0,005
591,7	0,005
592,1	0,005
592,5	0,005
593	0,005
593,4	0,005
593,9	0,005
594,3	0,004
594,8	0,004
595,2	0,004
595,7	0,004
596,1	0,004
596,6	0,004
597	0,004
597,4	0,004
597,9	0,004
598,3	0,004
598,8	0,004
599,2	0,004
599,7	0,004
600,1	0,004
600,6	0,004
601	0,004
601,4	0,004
601,9	0,004
602,3	0,004
602,8	0,004
603,2	0,004
603,7	0,004
604,1	0,004
604,6	0,004
605	0,004
605,4	0,004
605,9	0,004
606,3	0,004
606,8	0,004
607,2	0,004
607,7	0,004
608,1	0,004
608,6	0,004
609	0,003
609,4	0,003
609,9	0,003
610,3	0,003
610,8	0,003
611,2	0,003
611,7	0,003
612,1	0,004
612,6	0,004
613	0,004
613,4	0,004
613,9	0,004
614,3	0,004
614,8	0,004
615,2	0,004
615,7	0,004
616,1	0,004
616,6	0,004
617	0,004
617,4	0,004
617,9	0,004
618,3	0,005
618,8	0,004
619,2	0,004
619,7	0,004
620,1	0,004
620,5	0,004
621	0,004
621,4	0,004
621,9	0,004
622,3	0,004
622,8	0,004
623,2	0,004
623,6	0,004
624,1	0,004
624,5	0,004
625	0,004
625,4	0,004
625,9	0,004
626,3	0,004
626,8	0,004
627,2	0,005
627,6	0,005
628,1	0,005
628,5	0,005
629	0,005
629,4	0,005
629,9	0,005
630,3	0,004
630,7	0,004
631,2	0,004
631,6	0,004
632,1	0,004
632,5	0,004
633	0,004
633,4	0,004
633,8	0,004
634,3	0,004
634,7	0,004
635,2	0,004
635,6	0,004
636,1	0,004
636,5	0,004
636,9	0,004
637,4	0,004
637,8	0,004
638,3	0,004
638,7	0,004
639,2	0,004
639,6	0,004
640	0,004
640,5	0,004
640,9	0,005
641,4	0,005
641,8	0,004
642,2	0,004
642,7	0,004
643,1	0,004
643,6	0,004
644	0,004
644,5	0,004
644,9	0,004
645,3	0,004
645,8	0,004
646,2	0,004
646,7	0,004
647,1	0,004
647,6	0,004
648	0,004
648,4	0,004
648,9	0,004
649,3	0,004
649,8	0,004
650,2	0,004
650,6	0,004
651,1	0,004
651,5	0,004
652	0,004
652,4	0,004
652,9	0,004
653,3	0,003
653,7	0,002
654,2	0,001
654,6	0,001
655,1	0
655,5	0,001
655,9	0,002
656,4	0,002
656,8	0,002
657,3	0,003
657,7	0,004
658,2	0,006
658,6	0,004
659	0,003
659,5	0,003
659,9	0,003
660,4	0,003
660,8	0,003
661,2	0,003
661,7	0,003
662,1	0,003
662,6	0,003
663	0,003
663,4	0,003
663,9	0,003
664,3	0,003
664,8	0,003
665,2	0,003
665,6	0,003
666,1	0,003
666,5	0,004
667	0,003
667,4	0,003
667,9	0,004
668,3	0,004
668,7	0,003
669,2	0,004
669,6	0,003
670,1	0,003
670,5	0,003
670,9	0,003
671,4	0,003
671,8	0,003
672,3	0,003
672,7	0,003
673,1	0,003
673,6	0,003
674	0,003
674,5	0,003
674,9	0,003
675,3	0,004
675,8	0,004
676,2	0,004
676,7	0,004
677,1	0,004
677,5	0,004
678	0,004
678,4	0,004
678,9	0,004
679,3	0,004
679,7	0,004
680,2	0,004
680,6	0,004
681,1	0,004
681,5	0,003
681,9	0,003
682,4	0,003
682,8	0,003
683,3	0,003
683,7	0,003
684,1	0,003
684,6	0,003
685	0,003
685,5	0,004
685,9	0,004
686,3	0,004
686,8	0,004
687,2	0,004
687,7	0,004
688,1	0,003
688,5	0,003
689	0,003
689,4	0,003
689,9	0,003
690,3	0,004
690,7	0,003
691,2	0,004
691,6	0,004
692	0,004
692,5	0,004
692,9	0,003
693,4	0,003
693,8	0,003
694,2	0,003
694,7	0,004
695,1	0,004
695,6	0,004
696	0,004
696,4	0,004
696,9	0,004
697,3	0,004
697,8	0,004
698,2	0,004
698,6	0,004
699,1	0,004
699,5	0,004
699,9	0,003
700,4	0,003
700,8	0,003
701,3	0,003
701,7	0,003
702,1	0,003
702,6	0,002
703	0,003
703,5	0,003
703,9	0,003
704,3	0,004
704,8	0,004
705,2	0,003
705,6	0,004
706,1	0,003
706,5	0,003
707	0,003
707,4	0,003
707,8	0,003
708,3	0,004
708,7	0,003
709,2	0,003
709,6	0,003
710	0,003
710,5	0,003
710,9	0,004
711,3	0,003
711,8	0,004
712,2	0,004
712,7	0,003
713,1	0,004
713,5	0,004
714	0,004
714,4	0,004
714,8	0,004
715,3	0,004
715,7	0,004
716,2	0,004
716,6	0,004
717	0,004
717,5	0,003
717,9	0,003
718,3	0,003
718,8	0,003
719,2	0,004
719,7	0,004
720,1	0,004
720,5	0,004
721	0,004
721,4	0,004
721,8	0,004
722,3	0,004
722,7	0,003
723,2	0,003
723,6	0,003
724	0,003
724,5	0,003
724,9	0,003
725,3	0,004
725,8	0,004
726,2	0,004
726,7	0,004
727,1	0,004
727,5	0,004
728	0,004
728,4	0,003
728,8	0,003
729,3	0,003
729,7	0,004
730,1	0,004
730,6	0,004
731	0,004
731,5	0,004
731,9	0,004
732,3	0,004
732,8	0,004
733,2	0,004
733,6	0,004
734,1	0,004
734,5	0,004
734,9	0,004
735,4	0,004
735,8	0,004
736,3	0,004
736,7	0,003
737,1	0,003
737,6	0,004
738	0,004
738,4	0,004
738,9	0,003
739,3	0,004
739,7	0,004
740,2	0,004
740,6	0,004
741,1	0,003
741,5	0,003
741,9	0,003
742,4	0,003
742,8	0,003
743,2	0,003
743,7	0,003
744,1	0,002
744,5	0,002
745	0,002
745,4	0,002
745,8	0,002
746,3	0,003
746,7	0,003
747,2	0,003
747,6	0,003
748	0,003
748,5	0,004
748,9	0,004
749,3	0,004
749,8	0,004
750,2	0,004
750,6	0,004
751,1	0,004
751,5	0,004
751,9	0,004
752,4	0,004
752,8	0,003
753,3	0,004
753,7	0,003
754,1	0,004
754,6	0,004
755	0,003
755,4	0,003
755,9	0,004
756,3	0,003
756,7	0,004
757,2	0,004
757,6	0,003
758	0,004
758,5	0,004
758,9	0,003
759,3	0,003
759,8	0,003
760,2	0,003
760,6	0,003
761,1	0,003
761,5	0,003
761,9	0,003
762,4	0,003
762,8	0,004
763,3	0,004
763,7	0,004
764,1	0,004
764,6	0,004
765	0,004
765,4	0,004
765,9	0,004
766,3	0,004
766,7	0,004
767,2	0,004
767,6	0,004
768	0,004
768,5	0,004
768,9	0,004
769,3	0,004
769,8	0,004
770,2	0,004
770,6	0,004
771,1	0,004
771,5	0,004
771,9	0,003
772,4	0,004
772,8	0,003
773,2	0,004
773,7	0,004
774,1	0,004
774,5	0,004
775	0,004
775,4	0,004
775,8	0,004
776,3	0,004
776,7	0,004
777,1	0,003
777,6	0,003
778	0,003
778,4	0,003
778,9	0,003
779,3	0,003
779,7	0,003
780,2	0,003
780,6	0,003
781	0,004
781,5	0,004
781,9	0,004
782,3	0,004
782,8	0,004
783,2	0,004
783,6	0,003
784,1	0,003
784,5	0,003
784,9	0,003
785,4	0,003
785,8	0,003
786,2	0,003
786,7	0,004
787,1	0,004
787,5	0,004
788	0,004
788,4	0,004
788,8	0,004
789,3	0,004
789,7	0,004
790,1	0,004
790,6	0,004
791	0,004
791,4	0,004
791,9	0,004
792,3	0,004
792,7	0,004
793,2	0,004
793,6	0,004
794	0,004
794,5	0,004
794,9	0,004
795,3	0,004
795,8	0,004
796,2	0,004
796,6	0,005
797,1	0,004
797,5	0,004
797,9	0,004
798,4	0,004
798,8	0,003
799,2	0,003
799,7	0,003
800,1	0,003
800,5	0,003
801	0,004
801,4	0,004
801,8	0,004
802,2	0,003
802,7	0,004
803,1	0,004
803,5	0,003
804	0,003
804,4	0,003
804,8	0,003
805,3	0,003
805,7	0,003
806,1	0,004
806,6	0,004
807	0,004
807,4	0,004
807,9	0,004
808,3	0,004
808,7	0,004
809,2	0,004
809,6	0,004
810	0,004
810,4	0,004
810,9	0,004
811,3	0,004
811,7	0,004
812,2	0,004
812,6	0,004
813	0,004
813,5	0,004
813,9	0,004
814,3	0,004
814,8	0,004
815,2	0,004
815,6	0,004
816,1	0,003
816,5	0,003
816,9	0,003
817,3	0,003
817,8	0,003
818,2	0,003
818,6	0,003
819,1	0,003
819,5	0,003
819,9	0,002
820,4	0,002
820,8	0,002
821,2	0,002
821,7	0,002
822,1	0,002
822,5	0,002
822,9	0,002
823,4	0,002
823,8	0,002
824,2	0,003
824,7	0,003
825,1	0,003
825,5	0,003
826	0,004
826,4	0,003
826,8	0,003
827,3	0,003
827,7	0,003
828,1	0,003
828,5	0,003
829	0,003
829,4	0,003
829,8	0,003
830,3	0,003
830,7	0,003
831,1	0,003
831,6	0,003
832	0,003
832,4	0,003
832,8	0,003
833,3	0,003
833,7	0,003
834,1	0,003
834,6	0,003
835	0,003
835,4	0,003
835,8	0,003
836,3	0,004
836,7	0,004
837,1	0,003
837,6	0,003
838	0,003
838,4	0,003
838,9	0,003
839,3	0,003
839,7	0,003
840,1	0,003
840,6	0,003
841	0,003
841,4	0,003
841,9	0,003
842,3	0,003
842,7	0,003
843,1	0,003
843,6	0,004
844	0,003
844,4	0,004
844,9	0,003
845,3	0,003
845,7	0,003
846,2	0,003
846,6	0,003
847	0,003
847,4	0,003
847,9	0,003
848,3	0,003
848,7	0,003
849,2	0,003
849,6	0,004
850	0,003
850,4	0,003
850,9	0,003
851,3	0,003
851,7	0,003
852,2	0,003
852,6	0,003
853	0,003
853,4	0,003
853,9	0,004
854,3	0,003
854,7	0,003
855,2	0,003
855,6	0,003
856	0,003
856,4	0,003
856,9	0,003
857,3	0,004
857,7	0,004
858,2	0,004
858,6	0,004
859	0,004
859,4	0,004
859,9	0,004
860,3	0,004
860,7	0,004
861,1	0,004
861,6	0,004
862	0,003
862,4	0,003
862,9	0,003
863,3	0,003
863,7	0,004
864,1	0,004
864,6	0,004
865	0,004
865,4	0,004
865,9	0,004
866,3	0,004
866,7	0,004
867,1	0,004
867,6	0,004
868	0,003
868,4	0,003
868,8	0,004
869,3	0,004
869,7	0,003
870,1	0,004
870,6	0,003
871	0,003
871,4	0,003
871,8	0,003
872,3	0,003
872,7	0,003
873,1	0,003
873,5	0,003
874	0,003
874,4	0,003
874,8	0,003
875,3	0,003
875,7	0,003
876,1	0,003
876,5	0,003
877	0,003
877,4	0,003
877,8	0,003
878,2	0,003
878,7	0,003
879,1	0,003
879,5	0,003
879,9	0,003
880,4	0,003
880,8	0,003
881,2	0,004
881,7	0,004
882,1	0,004
882,5	0,004
882,9	0,004
883,4	0,004
883,8	0,004
884,2	0,004
884,6	0,004
885,1	0,003
885,5	0,003
885,9	0,003
886,3	0,003
886,8	0,003
887,2	0,003
887,6	0,003
888	0,004
888,5	0,004
888,9	0,004
889,3	0,005
889,8	0,005
890,2	0,004
890,6	0,004
891	0,004
891,5	0,004
891,9	0,004
892,3	0,004
892,7	0,004
893,2	0,004
893,6	0,004
894	0,004
894,4	0,004
894,9	0,004
895,3	0,004
895,7	0,004
896,1	0,004
896,6	0,004
897	0,004
897,4	0,004
897,8	0,004
898,3	0,004
898,7	0,004
899,1	0,004
899,5	0,004
900	0,004
900,4	0,004
900,8	0,003
901,2	0,003
901,7	0,003
902,1	0,003
902,5	0,003
902,9	0,003
903,4	0,003
903,8	0,003
904,2	0,004
904,6	0,004
905,1	0,004
905,5	0,004
905,9	0,004
906,3	0,004
906,8	0,004
907,2	0,004
907,6	0,004
908	0,004
908,5	0,004
908,9	0,004
909,3	0,004
909,7	0,005
910,2	0,005
910,6	0,005
911	0,005
911,4	0,005
911,9	0,005
912,3	0,005
912,7	0,005
913,1	0,005
913,6	0,004
914	0,004
914,4	0,004
914,8	0,004
915,3	0,003
915,7	0,003
916,1	0,003
916,5	0,003
916,9	0,003
917,4	0,003
917,8	0,003
918,2	0,003
918,6	0,002
919,1	0,003
919,5	0,003
919,9	0,003
920,3	0,003
920,8	0,003
921,2	0,003
921,6	0,004
922	0,004
922,5	0,004
922,9	0,005
923,3	0,005
923,7	0,005
924,2	0,004
924,6	0,004
925	0,004
925,4	0,004
925,8	0,004
926,3	0,004
926,7	0,004
927,1	0,004
927,5	0,005
928	0,005
928,4	0,005
928,8	0,005
929,2	0,004
929,7	0,005
930,1	0,004
930,5	0,004
930,9	0,004
931,3	0,004
931,8	0,004
932,2	0,004
932,6	0,004
933	0,004
933,5	0,004
933,9	0,004
934,3	0,004
934,7	0,004
935,2	0,004
935,6	0,003
936	0,003
936,4	0,003
936,8	0,003
937,3	0,003
937,7	0,003
938,1	0,003
938,5	0,004
939	0,004
939,4	0,004
939,8	0,003
940,2	0,003
940,6	0,003
941,1	0,004
941,5	0,004
941,9	0,004
942,3	0,003
942,8	0,004
943,2	0,004
943,6	0,004
944	0,004
944,4	0,003
944,9	0,004
945,3	0,004
945,7	0,004
946,1	0,004
946,6	0,004
947	0,004
947,4	0,003
947,8	0,003
948,2	0,003
948,7	0,003
949,1	0,004
949,5	0,004
949,9	0,004
950,3	0,004
950,8	0,004
951,2	0,004
951,6	0,003
952	0,003
952,5	0,003
952,9	0,003
953,3	0,003
953,7	0,003
954,1	0,003
954,6	0,004
955	0,004
955,4	0,004
955,8	0,004
956,2	0,004
956,7	0,003
957,1	0,003
957,5	0,002
957,9	0,002
958,3	0,002
958,8	0,002
959,2	0,003
959,6	0,003
960	0,004
960,5	0,004
960,9	0,004
961,3	0,005
961,7	0,004
962,1	0,004
962,6	0,005
963	0,005
963,4	0,005
963,8	0,005
964,2	0,005
964,7	0,005
965,1	0,005
965,5	0,005
965,9	0,006
966,3	0,005
966,8	0,005
967,2	0,005
967,6	0,005
968	0,005
968,4	0,005
968,9	0,005
969,3	0,004
969,7	0,005
970,1	0,005
970,5	0,005
971	0,004
971,4	0,004
971,8	0,004
972,2	0,004
972,6	0,003
973,1	0,003
973,5	0,003
973,9	0,003
974,3	0,003
974,7	0,003
975,2	0,003
975,6	0,003
976	0,004
976,4	0,004
976,8	0,004
977,3	0,003
977,7	0,004
978,1	0,004
978,5	0,004
978,9	0,004
979,4	0,004
979,8	0,004
980,2	0,004
980,6	0,004
981	0,004
981,5	0,004
981,9	0,004
982,3	0,003
982,7	0,004
983,1	0,003
983,6	0,003
984	0,004
984,4	0,003
984,8	0,004
985,2	0,004
985,6	0,003
986,1	0,004
986,5	0,004
986,9	0,004
987,3	0,004
987,7	0,004
988,2	0,004
988,6	0,004
989	0,004
989,4	0,004
989,8	0,004
990,3	0,004
990,7	0,003
991,1	0,003
991,5	0,003
991,9	0,003
992,3	0,003
992,8	0,003
993,2	0,003
993,6	0,003
994	0,003
994,4	0,003
994,9	0,003
995,3	0,003
995,7	0,003
996,1	0,003
996,5	0,003
996,9	0,003
997,4	0,004
997,8	0,003
998,2	0,003
998,6	0,003
999	0,003
999,5	0,002
999,9	0,002
1000,3	0,002
1000,7	0,002
1001,1	0,002
1001,5	0,002
1002	0,002
1002,4	0,002
1002,8	0,002
1003,2	0,002
1003,6	0,002
1004	0,002
1004,5	0,003
1004,9	0,003
1005,3	0,003
1005,7	0,003
1006,1	0,003
1006,6	0,003
1007	0,002
1007,4	0,002
1007,8	0,002
1008,2	0,001
1008,6	0,001
1009,1	0,001
1009,5	0,001
1009,9	0,002
1010,3	0,002
1010,7	0,003
1011,1	0,003
1011,6	0,004
1012	0,004
1012,4	0,004
1012,8	0,004
1013,2	0,004
1013,6	0,004
1014,1	0,004
1014,5	0,003
1014,9	0,004
1015,3	0,004
1015,7	0,004
1016,1	0,004
1016,6	0,004
1017	0,004
1017,4	0,004
1017,8	0,004
1018,2	0,003
1018,6	0,003
1019,1	0,003
1019,5	0,004
1019,9	0,003
1020,3	0,004
1020,7	0,003
1021,1	0,004
1021,6	0,004
1022	0,004
1022,4	0,004
1022,8	0,004
1023,2	0,004
1023,6	0,005
1024,1	0,004
1024,5	0,004
1024,9	0,004
1025,3	0,003
1025,7	0,003
1026,1	0,003
1026,6	0,003
1027	0,003
1027,4	0,003
1027,8	0,003
1028,2	0,003
1028,6	0,003
1029	0,004
1029,5	0,004
1029,9	0,004
1030,3	0,005
1030,7	0,005
1031,1	0,005
1031,5	0,005
1032	0,005
1032,4	0,004
1032,8	0,005
1033,2	0,004
1033,6	0,004
1034	0,003
1034,4	0,002
1034,9	0,002
1035,3	0,003
1035,7	0,003
1036,1	0,003
1036,5	0,003
1036,9	0,003
1037,4	0,003
1037,8	0,003
1038,2	0,004
1038,6	0,003
1039	0,003
1039,4	0,003
1039,8	0,003
1040,3	0,003
1040,7	0,003
1041,1	0,002
1041,5	0,002
1041,9	0,002
1042,3	0,003
1042,7	0,004
1043,2	0,004
1043,6	0,004
1044	0,004
1044,4	0,004
1044,8	0,004
1045,2	0,002
1045,6	0,002
1046,1	0,002
1046,5	0,002
1046,9	0,002
1047,3	0,003
1047,7	0,003
1048,1	0,003
1048,5	0,003
1049	0,003
1049,4	0,003
1049,8	0,003
1050,2	0,002
1050,6	0,004
1051	0,004
1051,4	0,004
1051,9	0,004
1052,3	0,004
1052,7	0,004
1053,1	0,004
1053,5	0,004
1053,9	0,003
1054,3	0,003
1054,8	0,003
1055,2	0,004
1055,6	0,003
1056	0,004
1056,4	0,003
1056,8	0,003
1057,2	0,003
1057,6	0,003
1058,1	0,002
1058,5	0,003
1058,9	0,002
1059,3	0,003
1059,7	0,004
1060,1	0,003
1060,5	0,003
1061	0,004
1061,4	0,002
1061,8	0,002
1062,2	0,002
1062,6	0,002
1063	0,002
1063,4	0,002
1063,8	0,002
1064,3	0,002
1064,7	0
1065,1	0,001
1065,5	0
1065,9	0
1066,3	0,001
1066,7	0,001
1067,1	0,002
1067,6	0,004
1068	0,003
1068,4	0,004
1068,8	0,003
1069,2	0,003
1069,6	0,003
1070	0,002
1070,4	0,003
1070,9	0,003
1071,3	0,004
1071,7	0,005
1072,1	0,004
1072,5	0,004
1072,9	0,003
1073,3	0,002
1073,7	0,003
1074,2	0,003
1074,6	0,002
1075	0,003
1075,4	0,003
1075,8	0,003
1076,2	0,003
1076,6	0,003
1077	0,002
1077,5	0,002
1077,9	0,002
1078,3	0,002
1078,7	0,003
1079,1	0,004
1079,5	0,003
1079,9	0,005
1080,3	0,005
1080,7	0,006
1081,2	0,007
1081,6	0,007
1082	0,006
1082,4	0,008
1082,8	0,005
1083,2	0,006
1083,6	0,005
1084	0,002
1084,5	0,001
1084,9	0,003
1085,3	0,002
1085,7	0,003
1086,1	0,002
1086,5	0,004
1086,9	0,005
1087,3	0,007
1087,7	0,006
1088,2	0,007
1088,6	0,007
1089	0,006
1089,4	0,005
1089,8	0,007
1090,2	0,005
1090,6	0,004
1091	0,003
1091,4	0,002
1091,9	0,003
1092,3	0,004
1092,7	0,005
1093,1	0,008
1093,5	0,008
1093,9	0,009
1094,3	0,006
1094,7	0,005
1095,1	0,004
1095,5	-0,001
1096	-0
1096,4	-0,001
1096,8	-0,004
1097,2	0,001
1097,6	0,002
1098	0,002
1098,4	-0,001
1098,8	-0,002
1099,2	-0,002
1099,6	0,013
1100,1	0,015
1100,5	0,019
1100,9	0,02
1101,3	0,025
1101,7	0,026
1102,1	0,023
1102,5	0,008
1102,9	0,008
1103,3	-0,004
1103,7	-0,006
1104,2	-0,006
1104,6	-0,007
1105	-0,01
1105,4	-0,005
1105,8	-0,005
1106,2	0,008
1106,6	0,013
1107	0,005
1107,4	0,009
1107,8	0,052
1108,3	-0
