Data from Absorbance_051.txt Node
Date: Fri Nov 13 13:48:34 MSK 2020
User: vat
Spectrometer: MAYP114033
Trigger mode: 0
Integration Time (sec): 8,000000E-3
Scans to average: 10
Electric dark correction enabled: true
Nonlinearity correction enabled: false
Boxcar width: 3
XAxis mode: Wavelengths
Number of Pixels in Spectrum: 2068
>>>>>Begin Spectral Data<<<<<
199,4	-0
199,9	0,257
200,4	-0,002
200,8	0,025
201,3	0,015
201,8	0,064
202,2	0,085
202,7	0,089
203,2	0,099
203,6	0,113
204,1	0,128
204,6	0,15
205	0,136
205,5	0,124
206	0,118
206,4	0,109
206,9	0,129
207,4	0,119
207,8	0,113
208,3	0,122
208,8	0,127
209,2	0,12
209,7	0,136
210,2	0,125
210,6	0,135
211,1	0,164
211,5	0,165
212	0,189
212,5	0,214
212,9	0,206
213,4	0,216
213,9	0,202
214,3	0,168
214,8	0,175
215,3	0,161
215,7	0,144
216,2	0,141
216,7	0,137
217,1	0,142
217,6	0,14
218,1	0,126
218,5	0,13
219	0,143
219,5	0,149
219,9	0,151
220,4	0,138
220,9	0,134
221,3	0,154
221,8	0,151
222,3	0,152
222,7	0,154
223,2	0,175
223,6	0,203
224,1	0,21
224,6	0,195
225	0,206
225,5	0,214
226	0,223
226,4	0,189
226,9	0,166
227,4	0,165
227,8	0,172
228,3	0,163
228,8	0,16
229,2	0,162
229,7	0,169
230,2	0,178
230,6	0,18
231,1	0,184
231,5	0,194
232	0,181
232,5	0,178
232,9	0,201
233,4	0,184
233,9	0,192
234,3	0,197
234,8	0,207
235,3	0,223
235,7	0,212
236,2	0,208
236,7	0,236
237,1	0,255
237,6	0,261
238,1	0,251
238,5	0,246
239	0,265
239,4	0,262
239,9	0,259
240,4	0,238
240,8	0,258
241,3	0,271
241,8	0,27
242,2	0,269
242,7	0,273
243,2	0,29
243,6	0,321
244,1	0,311
244,6	0,315
245	0,336
245,5	0,341
245,9	0,349
246,4	0,35
246,9	0,348
247,3	0,364
247,8	0,366
248,3	0,36
248,7	0,377
249,2	0,401
249,7	0,416
250,1	0,422
250,6	0,416
251	0,428
251,5	0,434
252	0,432
252,4	0,429
252,9	0,434
253,4	0,44
253,8	0,448
254,3	0,455
254,8	0,468
255,2	0,481
255,7	0,494
256,1	0,507
256,6	0,521
257,1	0,535
257,5	0,551
258	0,566
258,5	0,581
258,9	0,596
259,4	0,612
259,9	0,627
260,3	0,645
260,8	0,662
261,2	0,682
261,7	0,702
262,2	0,721
262,6	0,739
263,1	0,759
263,6	0,779
264	0,798
264,5	0,816
264,9	0,836
265,4	0,856
265,9	0,878
266,3	0,898
266,8	0,918
267,3	0,937
267,7	0,959
268,2	0,983
268,7	1,002
269,1	1,022
269,6	1,044
270	1,067
270,5	1,09
271	1,109
271,4	1,127
271,9	1,146
272,4	1,166
272,8	1,185
273,3	1,204
273,7	1,221
274,2	1,24
274,7	1,254
275,1	1,272
275,6	1,288
276,1	1,302
276,5	1,315
277	1,328
277,4	1,34
277,9	1,353
278,4	1,365
278,8	1,377
279,3	1,384
279,8	1,391
280,2	1,397
280,7	1,401
281,1	1,407
281,6	1,409
282,1	1,413
282,5	1,415
283	1,414
283,4	1,414
283,9	1,412
284,4	1,407
284,8	1,403
285,3	1,395
285,8	1,389
286,2	1,379
286,7	1,369
287,1	1,359
287,6	1,347
288,1	1,333
288,5	1,318
289	1,3
289,5	1,285
289,9	1,267
290,4	1,246
290,8	1,224
291,3	1,203
291,8	1,181
292,2	1,158
292,7	1,135
293,1	1,112
293,6	1,088
294,1	1,062
294,5	1,036
295	1,008
295,5	0,98
295,9	0,953
296,4	0,924
296,8	0,896
297,3	0,867
297,8	0,839
298,2	0,811
298,7	0,784
299,1	0,754
299,6	0,727
300,1	0,699
300,5	0,672
301	0,645
301,5	0,618
301,9	0,592
302,4	0,567
302,8	0,543
303,3	0,52
303,8	0,497
304,2	0,474
304,7	0,454
305,1	0,433
305,6	0,413
306,1	0,393
306,5	0,375
307	0,358
307,4	0,342
307,9	0,326
308,4	0,311
308,8	0,297
309,3	0,283
309,8	0,27
310,2	0,257
310,7	0,246
311,1	0,234
311,6	0,224
312,1	0,214
312,5	0,205
313	0,196
313,4	0,187
313,9	0,179
314,4	0,172
314,8	0,164
315,3	0,158
315,7	0,152
316,2	0,146
316,7	0,141
317,1	0,136
317,6	0,131
318	0,127
318,5	0,123
319	0,119
319,4	0,116
319,9	0,112
320,3	0,109
320,8	0,106
321,3	0,103
321,7	0,1
322,2	0,098
322,6	0,095
323,1	0,093
323,6	0,091
324	0,09
324,5	0,088
324,9	0,087
325,4	0,085
325,9	0,084
326,3	0,083
326,8	0,082
327,2	0,081
327,7	0,08
328,2	0,079
328,6	0,077
329,1	0,076
329,5	0,075
330	0,074
330,5	0,073
330,9	0,072
331,4	0,072
331,8	0,071
332,3	0,07
332,8	0,07
333,2	0,069
333,7	0,068
334,1	0,067
334,6	0,067
335,1	0,066
335,5	0,065
336	0,065
336,4	0,064
336,9	0,063
337,4	0,062
337,8	0,061
338,3	0,061
338,7	0,061
339,2	0,06
339,7	0,06
340,1	0,06
340,6	0,059
341	0,059
341,5	0,059
342	0,059
342,4	0,058
342,9	0,057
343,3	0,057
343,8	0,057
344,2	0,056
344,7	0,055
345,2	0,055
345,6	0,055
346,1	0,055
346,5	0,054
347	0,054
347,5	0,054
347,9	0,053
348,4	0,053
348,8	0,052
349,3	0,051
349,8	0,051
350,2	0,05
350,7	0,05
351,1	0,05
351,6	0,05
352	0,049
352,5	0,049
353	0,049
353,4	0,049
353,9	0,048
354,3	0,047
354,8	0,047
355,3	0,047
355,7	0,047
356,2	0,046
356,6	0,046
357,1	0,046
357,5	0,046
358	0,045
358,5	0,045
358,9	0,045
359,4	0,045
359,8	0,045
360,3	0,044
360,8	0,044
361,2	0,044
361,7	0,043
362,1	0,042
362,6	0,042
363	0,042
363,5	0,041
364	0,041
364,4	0,04
364,9	0,04
365,3	0,04
365,8	0,04
366,3	0,039
366,7	0,039
367,2	0,038
367,6	0,038
368,1	0,037
368,5	0,037
369	0,036
369,5	0,036
369,9	0,036
370,4	0,036
370,8	0,036
371,3	0,036
371,7	0,035
372,2	0,035
372,7	0,035
373,1	0,034
373,6	0,034
374	0,034
374,5	0,034
374,9	0,034
375,4	0,034
375,9	0,033
376,3	0,033
376,8	0,033
377,2	0,033
377,7	0,032
378,2	0,032
378,6	0,031
379,1	0,031
379,5	0,031
380	0,031
380,4	0,031
380,9	0,031
381,4	0,03
381,8	0,03
382,3	0,03
382,7	0,029
383,2	0,029
383,6	0,029
384,1	0,03
384,6	0,029
385	0,029
385,5	0,029
385,9	0,029
386,4	0,028
386,8	0,028
387,3	0,027
387,7	0,027
388,2	0,027
388,7	0,027
389,1	0,027
389,6	0,027
390	0,027
390,5	0,027
390,9	0,027
391,4	0,027
391,9	0,026
392,3	0,026
392,8	0,026
393,2	0,026
393,7	0,025
394,1	0,025
394,6	0,025
395,1	0,025
395,5	0,025
396	0,025
396,4	0,024
396,9	0,024
397,3	0,024
397,8	0,023
398,2	0,023
398,7	0,023
399,2	0,023
399,6	0,023
400,1	0,023
400,5	0,023
401	0,023
401,4	0,023
401,9	0,023
402,4	0,022
402,8	0,022
403,3	0,022
403,7	0,022
404,2	0,021
404,6	0,021
405,1	0,021
405,5	0,021
406	0,021
406,5	0,02
406,9	0,02
407,4	0,02
407,8	0,02
408,3	0,02
408,7	0,02
409,2	0,02
409,6	0,02
410,1	0,019
410,6	0,02
411	0,02
411,5	0,02
411,9	0,02
412,4	0,02
412,8	0,02
413,3	0,02
413,7	0,02
414,2	0,02
414,7	0,019
415,1	0,019
415,6	0,019
416	0,019
416,5	0,018
416,9	0,018
417,4	0,018
417,8	0,018
418,3	0,017
418,8	0,018
419,2	0,018
419,7	0,018
420,1	0,018
420,6	0,018
421	0,017
421,5	0,017
421,9	0,017
422,4	0,017
422,8	0,017
423,3	0,017
423,8	0,016
424,2	0,016
424,7	0,016
425,1	0,016
425,6	0,016
426	0,016
426,5	0,016
426,9	0,015
427,4	0,016
427,9	0,015
428,3	0,016
428,8	0,016
429,2	0,015
429,7	0,015
430,1	0,015
430,6	0,015
431	0,015
431,5	0,014
431,9	0,014
432,4	0,015
432,8	0,015
433,3	0,015
433,8	0,015
434,2	0,015
434,7	0,015
435,1	0,014
435,6	0,014
436	0,014
436,5	0,014
436,9	0,014
437,4	0,015
437,8	0,015
438,3	0,015
438,8	0,015
439,2	0,015
439,7	0,015
440,1	0,014
440,6	0,014
441	0,014
441,5	0,013
441,9	0,013
442,4	0,013
442,8	0,012
443,3	0,013
443,7	0,013
444,2	0,013
444,7	0,013
445,1	0,012
445,6	0,012
446	0,012
446,5	0,012
446,9	0,013
447,4	0,013
447,8	0,013
448,3	0,013
448,7	0,013
449,2	0,013
449,6	0,013
450,1	0,013
450,6	0,012
451	0,012
451,5	0,012
451,9	0,012
452,4	0,011
452,8	0,011
453,3	0,011
453,7	0,011
454,2	0,011
454,6	0,011
455,1	0,011
455,5	0,011
456	0,011
456,4	0,011
456,9	0,011
457,3	0,011
457,8	0,011
458,3	0,011
458,7	0,011
459,2	0,01
459,6	0,01
460,1	0,01
460,5	0,011
461	0,01
461,4	0,011
461,9	0,011
462,3	0,011
462,8	0,011
463,2	0,011
463,7	0,01
464,1	0,011
464,6	0,01
465	0,01
465,5	0,01
466	0,01
466,4	0,01
466,9	0,01
467,3	0,01
467,8	0,01
468,2	0,01
468,7	0,01
469,1	0,009
469,6	0,01
470	0,01
470,5	0,01
470,9	0,01
471,4	0,01
471,8	0,01
472,3	0,01
472,7	0,01
473,2	0,01
473,6	0,009
474,1	0,009
474,5	0,009
475	0,009
475,4	0,008
475,9	0,009
476,4	0,009
476,8	0,009
477,3	0,009
477,7	0,01
478,2	0,009
478,6	0,01
479,1	0,009
479,5	0,009
480	0,009
480,4	0,009
480,9	0,009
481,3	0,008
481,8	0,008
482,2	0,008
482,7	0,009
483,1	0,009
483,6	0,009
484	0,01
484,5	0,009
484,9	0,008
485,4	0,008
485,8	0,008
486,3	0,007
486,7	0,007
487,2	0,006
487,6	0,006
488,1	0,007
488,5	0,008
489	0,007
489,4	0,007
489,9	0,008
490,4	0,007
490,8	0,007
491,3	0,008
491,7	0,007
492,2	0,008
492,6	0,008
493,1	0,008
493,5	0,009
494	0,008
494,4	0,008
494,9	0,008
495,3	0,008
495,8	0,007
496,2	0,007
496,7	0,007
497,1	0,007
497,6	0,007
498	0,006
498,5	0,006
498,9	0,007
499,4	0,007
499,8	0,006
500,3	0,006
500,7	0,006
501,2	0,006
501,6	0,006
502,1	0,005
502,5	0,005
503	0,005
503,4	0,005
503,9	0,006
504,3	0,006
504,8	0,007
505,2	0,006
505,7	0,007
506,1	0,007
506,6	0,007
507	0,007
507,5	0,007
507,9	0,007
508,4	0,007
508,8	0,007
509,3	0,007
509,7	0,008
510,2	0,008
510,6	0,008
511,1	0,008
511,5	0,008
512	0,008
512,4	0,007
512,9	0,007
513,3	0,007
513,8	0,006
514,2	0,006
514,7	0,006
515,1	0,006
515,6	0,006
516	0,006
516,5	0,006
516,9	0,006
517,4	0,006
517,8	0,006
518,3	0,006
518,7	0,006
519,2	0,007
519,6	0,006
520,1	0,007
520,5	0,006
521	0,006
521,4	0,005
521,9	0,006
522,3	0,005
522,8	0,005
523,2	0,005
523,7	0,005
524,1	0,006
524,6	0,006
525	0,005
525,5	0,005
525,9	0,005
526,4	0,005
526,8	0,005
527,3	0,005
527,7	0,005
528,2	0,005
528,6	0,006
529,1	0,006
529,5	0,006
530	0,006
530,4	0,006
530,9	0,006
531,3	0,006
531,8	0,006
532,2	0,006
532,6	0,006
533,1	0,006
533,5	0,005
534	0,005
534,4	0,006
534,9	0,006
535,3	0,006
535,8	0,006
536,2	0,006
536,7	0,006
537,1	0,006
537,6	0,006
538	0,006
538,5	0,006
538,9	0,006
539,4	0,005
539,8	0,005
540,3	0,005
540,7	0,005
541,2	0,005
541,6	0,004
542,1	0,004
542,5	0,004
543	0,004
543,4	0,004
543,9	0,004
544,3	0,004
544,8	0,004
545,2	0,004
545,7	0,005
546,1	0,005
546,5	0,005
547	0,005
547,4	0,005
547,9	0,006
548,3	0,005
548,8	0,005
549,2	0,005
549,7	0,004
550,1	0,005
550,6	0,005
551	0,005
551,5	0,005
551,9	0,005
552,4	0,005
552,8	0,005
553,3	0,005
553,7	0,005
554,2	0,005
554,6	0,005
555,1	0,005
555,5	0,005
555,9	0,005
556,4	0,005
556,8	0,005
557,3	0,005
557,7	0,005
558,2	0,005
558,6	0,005
559,1	0,005
559,5	0,006
560	0,005
560,4	0,005
560,9	0,004
561,3	0,004
561,8	0,004
562,2	0,004
562,7	0,004
563,1	0,004
563,6	0,004
564	0,004
564,4	0,004
564,9	0,005
565,3	0,005
565,8	0,004
566,2	0,005
566,7	0,005
567,1	0,005
567,6	0,005
568	0,005
568,5	0,005
568,9	0,005
569,4	0,005
569,8	0,005
570,3	0,005
570,7	0,004
571,1	0,004
571,6	0,004
572	0,004
572,5	0,004
572,9	0,004
573,4	0,004
573,8	0,004
574,3	0,004
574,7	0,004
575,2	0,004
575,6	0,004
576,1	0,004
576,5	0,004
576,9	0,003
577,4	0,003
577,8	0,003
578,3	0,003
578,7	0,003
579,2	0,003
579,6	0,004
580,1	0,004
580,5	0,004
581	0,004
581,4	0,004
581,9	0,004
582,3	0,004
582,7	0,004
583,2	0,004
583,6	0,004
584,1	0,004
584,5	0,004
585	0,004
585,4	0,004
585,9	0,004
586,3	0,004
586,8	0,004
587,2	0,004
587,6	0,004
588,1	0,004
588,5	0,004
589	0,003
589,4	0,004
589,9	0,004
590,3	0,004
590,8	0,004
591,2	0,004
591,7	0,004
592,1	0,004
592,5	0,004
593	0,004
593,4	0,004
593,9	0,003
594,3	0,003
594,8	0,003
595,2	0,003
595,7	0,003
596,1	0,004
596,6	0,003
597	0,004
597,4	0,004
597,9	0,004
598,3	0,004
598,8	0,004
599,2	0,004
599,7	0,004
600,1	0,004
600,6	0,004
601	0,004
601,4	0,003
601,9	0,003
602,3	0,003
602,8	0,003
603,2	0,003
603,7	0,003
604,1	0,003
604,6	0,003
605	0,003
605,4	0,003
605,9	0,003
606,3	0,003
606,8	0,003
607,2	0,004
607,7	0,004
608,1	0,005
608,6	0,005
609	0,005
609,4	0,005
609,9	0,004
610,3	0,004
610,8	0,004
611,2	0,004
611,7	0,004
612,1	0,004
612,6	0,003
613	0,003
613,4	0,003
613,9	0,003
614,3	0,003
614,8	0,003
615,2	0,003
615,7	0,003
616,1	0,003
616,6	0,003
617	0,004
617,4	0,004
617,9	0,004
618,3	0,004
618,8	0,003
619,2	0,004
619,7	0,004
620,1	0,004
620,5	0,004
621	0,004
621,4	0,004
621,9	0,004
622,3	0,003
622,8	0,003
623,2	0,003
623,6	0,003
624,1	0,002
624,5	0,002
625	0,002
625,4	0,002
625,9	0,003
626,3	0,003
626,8	0,002
627,2	0,003
627,6	0,003
628,1	0,003
628,5	0,003
629	0,003
629,4	0,003
629,9	0,003
630,3	0,003
630,7	0,003
631,2	0,003
631,6	0,003
632,1	0,003
632,5	0,003
633	0,003
633,4	0,003
633,8	0,003
634,3	0,003
634,7	0,003
635,2	0,003
635,6	0,003
636,1	0,004
636,5	0,004
636,9	0,003
637,4	0,003
637,8	0,002
638,3	0,003
638,7	0,003
639,2	0,003
639,6	0,003
640	0,003
640,5	0,004
640,9	0,004
641,4	0,004
641,8	0,004
642,2	0,004
642,7	0,004
643,1	0,003
643,6	0,003
644	0,002
644,5	0,003
644,9	0,002
645,3	0,003
645,8	0,003
646,2	0,003
646,7	0,003
647,1	0,003
647,6	0,003
648	0,003
648,4	0,003
648,9	0,003
649,3	0,003
649,8	0,003
650,2	0,003
650,6	0,003
651,1	0,003
651,5	0,004
652	0,004
652,4	0,004
652,9	0,005
653,3	0,007
653,7	0,011
654,2	0,008
654,6	0,006
655,1	0,005
655,5	0,003
655,9	0,003
656,4	0,002
656,8	-0
657,3	-0
657,7	-0
658,2	0
658,6	0,003
659	0,003
659,5	0,003
659,9	0,003
660,4	0,003
660,8	0,004
661,2	0,004
661,7	0,004
662,1	0,004
662,6	0,004
663	0,003
663,4	0,004
663,9	0,003
664,3	0,003
664,8	0,003
665,2	0,003
665,6	0,003
666,1	0,003
666,5	0,002
667	0,002
667,4	0,002
667,9	0,002
668,3	0,002
668,7	0,002
669,2	0,002
669,6	0,003
670,1	0,003
670,5	0,002
670,9	0,002
671,4	0,003
671,8	0,003
672,3	0,003
672,7	0,002
673,1	0,002
673,6	0,002
674	0,003
674,5	0,003
674,9	0,003
675,3	0,003
675,8	0,003
676,2	0,003
676,7	0,003
677,1	0,003
677,5	0,003
678	0,002
678,4	0,003
678,9	0,003
679,3	0,003
679,7	0,003
680,2	0,003
680,6	0,003
681,1	0,003
681,5	0,003
681,9	0,003
682,4	0,002
682,8	0,003
683,3	0,003
683,7	0,003
684,1	0,003
684,6	0,003
685	0,003
685,5	0,002
685,9	0,002
686,3	0,002
686,8	0,002
687,2	0,003
687,7	0,003
688,1	0,003
688,5	0,004
689	0,004
689,4	0,004
689,9	0,004
690,3	0,004
690,7	0,004
691,2	0,003
691,6	0,003
692	0,003
692,5	0,003
692,9	0,002
693,4	0,002
693,8	0,002
694,2	0,002
694,7	0,002
695,1	0,003
695,6	0,003
696	0,003
696,4	0,003
696,9	0,003
697,3	0,003
697,8	0,003
698,2	0,002
698,6	0,002
699,1	0,002
699,5	0,003
699,9	0,003
700,4	0,003
700,8	0,003
701,3	0,003
701,7	0,003
702,1	0,003
702,6	0,002
703	0,003
703,5	0,002
703,9	0,002
704,3	0,002
704,8	0,003
705,2	0,003
705,6	0,002
706,1	0,003
706,5	0,003
707	0,003
707,4	0,003
707,8	0,002
708,3	0,003
708,7	0,003
709,2	0,002
709,6	0,002
710	0,002
710,5	0,002
710,9	0,003
711,3	0,002
711,8	0,002
712,2	0,003
712,7	0,003
713,1	0,002
713,5	0,002
714	0,002
714,4	0,002
714,8	0,002
715,3	0,002
715,7	0,002
716,2	0,002
716,6	0,002
717	0,002
717,5	0,002
717,9	0,002
718,3	0,002
718,8	0,002
719,2	0,003
719,7	0,003
720,1	0,003
720,5	0,003
721	0,003
721,4	0,003
721,8	0,003
722,3	0,003
722,7	0,003
723,2	0,003
723,6	0,003
724	0,003
724,5	0,003
724,9	0,003
725,3	0,003
725,8	0,003
726,2	0,003
726,7	0,003
727,1	0,003
727,5	0,003
728	0,003
728,4	0,003
728,8	0,003
729,3	0,003
729,7	0,003
730,1	0,003
730,6	0,002
731	0,002
731,5	0,002
731,9	0,002
732,3	0,002
732,8	0,002
733,2	0,002
733,6	0,002
734,1	0,002
734,5	0,002
734,9	0,002
735,4	0,002
735,8	0,002
736,3	0,002
736,7	0,002
737,1	0,002
737,6	0,002
738	0,002
738,4	0,002
738,9	0,002
739,3	0,002
739,7	0,001
740,2	0,001
740,6	0,001
741,1	0,001
741,5	0,001
741,9	0,001
742,4	0,001
742,8	0,002
743,2	0,002
743,7	0,002
744,1	0,002
744,5	0,002
745	0,002
745,4	0,002
745,8	0,002
746,3	0,002
746,7	0,002
747,2	0,002
747,6	0,002
748	0,003
748,5	0,003
748,9	0,003
749,3	0,003
749,8	0,003
750,2	0,003
750,6	0,003
751,1	0,003
751,5	0,003
751,9	0,002
752,4	0,002
752,8	0,002
753,3	0,002
753,7	0,002
754,1	0,002
754,6	0,002
755	0,003
755,4	0,003
755,9	0,003
756,3	0,003
756,7	0,003
757,2	0,004
757,6	0,004
758	0,003
758,5	0,004
758,9	0,003
759,3	0,003
759,8	0,003
760,2	0,002
760,6	0,002
761,1	0,002
761,5	0,002
761,9	0,002
762,4	0,002
762,8	0,002
763,3	0,002
763,7	0,002
764,1	0,003
764,6	0,002
765	0,003
765,4	0,002
765,9	0,003
766,3	0,003
766,7	0,003
767,2	0,003
767,6	0,003
768	0,004
768,5	0,004
768,9	0,004
769,3	0,004
769,8	0,004
770,2	0,003
770,6	0,003
771,1	0,003
771,5	0,003
771,9	0,003
772,4	0,003
772,8	0,002
773,2	0,003
773,7	0,002
774,1	0,002
774,5	0,002
775	0,002
775,4	0,002
775,8	0,002
776,3	0,002
776,7	0,002
777,1	0,002
777,6	0,002
778	0,002
778,4	0,002
778,9	0,002
779,3	0,002
779,7	0,002
780,2	0,002
780,6	0,002
781	0,002
781,5	0,002
781,9	0,003
782,3	0,003
782,8	0,003
783,2	0,002
783,6	0,003
784,1	0,003
784,5	0,003
784,9	0,003
785,4	0,003
785,8	0,003
786,2	0,003
786,7	0,003
787,1	0,003
787,5	0,003
788	0,003
788,4	0,003
788,8	0,002
789,3	0,002
789,7	0,002
790,1	0,002
790,6	0,002
791	0,003
791,4	0,003
791,9	0,003
792,3	0,003
792,7	0,003
793,2	0,003
793,6	0,003
794	0,003
794,5	0,003
794,9	0,003
795,3	0,002
795,8	0,003
796,2	0,003
796,6	0,003
797,1	0,003
797,5	0,002
797,9	0,002
798,4	0,002
798,8	0,002
799,2	0,002
799,7	0,002
800,1	0,002
800,5	0,002
801	0,002
801,4	0,002
801,8	0,002
802,2	0,002
802,7	0,002
803,1	0,002
803,5	0,002
804	0,002
804,4	0,002
804,8	0,002
805,3	0,002
805,7	0,002
806,1	0,003
806,6	0,003
807	0,003
807,4	0,002
807,9	0,002
808,3	0,002
808,7	0,002
809,2	0,002
809,6	0,003
810	0,003
810,4	0,003
810,9	0,003
811,3	0,003
811,7	0,003
812,2	0,003
812,6	0,003
813	0,003
813,5	0,003
813,9	0,003
814,3	0,003
814,8	0,003
815,2	0,003
815,6	0,003
816,1	0,003
816,5	0,003
816,9	0,003
817,3	0,003
817,8	0,003
818,2	0,003
818,6	0,002
819,1	0,003
819,5	0,003
819,9	0,003
820,4	0,003
820,8	0,003
821,2	0,003
821,7	0,003
822,1	0,002
822,5	0,002
822,9	0,002
823,4	0,002
823,8	0,002
824,2	0,002
824,7	0,001
825,1	0,002
825,5	0,002
826	0,002
826,4	0,002
826,8	0,002
827,3	0,003
827,7	0,003
828,1	0,003
828,5	0,003
829	0,003
829,4	0,003
829,8	0,003
830,3	0,003
830,7	0,003
831,1	0,003
831,6	0,003
832	0,002
832,4	0,002
832,8	0,002
833,3	0,002
833,7	0,002
834,1	0,002
834,6	0,002
835	0,003
835,4	0,003
835,8	0,003
836,3	0,003
836,7	0,003
837,1	0,003
837,6	0,003
838	0,002
838,4	0,002
838,9	0,002
839,3	0,002
839,7	0,002
840,1	0,002
840,6	0,002
841	0,002
841,4	0,002
841,9	0,003
842,3	0,003
842,7	0,003
843,1	0,003
843,6	0,004
844	0,004
844,4	0,004
844,9	0,004
845,3	0,004
845,7	0,004
846,2	0,004
846,6	0,003
847	0,003
847,4	0,003
847,9	0,003
848,3	0,003
848,7	0,003
849,2	0,003
849,6	0,004
850	0,004
850,4	0,003
850,9	0,003
851,3	0,003
851,7	0,003
852,2	0,002
852,6	0,002
853	0,001
853,4	0,001
853,9	0,002
854,3	0,002
854,7	0,002
855,2	0,002
855,6	0,002
856	0,002
856,4	0,002
856,9	0,002
857,3	0,002
857,7	0,002
858,2	0,002
858,6	0,002
859	0,002
859,4	0,003
859,9	0,003
860,3	0,003
860,7	0,003
861,1	0,003
861,6	0,004
862	0,004
862,4	0,004
862,9	0,004
863,3	0,003
863,7	0,004
864,1	0,004
864,6	0,003
865	0,003
865,4	0,003
865,9	0,003
866,3	0,003
866,7	0,003
867,1	0,003
867,6	0,003
868	0,003
868,4	0,003
868,8	0,003
869,3	0,003
869,7	0,003
870,1	0,003
870,6	0,003
871	0,003
871,4	0,003
871,8	0,003
872,3	0,003
872,7	0,003
873,1	0,003
873,5	0,003
874	0,003
874,4	0,003
874,8	0,003
875,3	0,003
875,7	0,003
876,1	0,003
876,5	0,003
877	0,003
877,4	0,002
877,8	0,002
878,2	0,002
878,7	0,002
879,1	0,002
879,5	0,002
879,9	0,002
880,4	0,002
880,8	0,002
881,2	0,003
881,7	0,003
882,1	0,003
882,5	0,004
882,9	0,004
883,4	0,004
883,8	0,003
884,2	0,003
884,6	0,003
885,1	0,003
885,5	0,003
885,9	0,003
886,3	0,003
886,8	0,003
887,2	0,003
887,6	0,003
888	0,003
888,5	0,003
888,9	0,002
889,3	0,002
889,8	0,002
890,2	0,002
890,6	0,002
891	0,002
891,5	0,002
891,9	0,003
892,3	0,003
892,7	0,003
893,2	0,003
893,6	0,003
894	0,003
894,4	0,003
894,9	0,002
895,3	0,003
895,7	0,003
896,1	0,003
896,6	0,003
897	0,003
897,4	0,003
897,8	0,003
898,3	0,003
898,7	0,003
899,1	0,003
899,5	0,004
900	0,004
900,4	0,004
900,8	0,004
901,2	0,004
901,7	0,004
902,1	0,003
902,5	0,003
902,9	0,003
903,4	0,003
903,8	0,003
904,2	0,002
904,6	0,002
905,1	0,002
905,5	0,002
905,9	0,002
906,3	0,002
906,8	0,002
907,2	0,002
907,6	0,002
908	0,002
908,5	0,002
908,9	0,003
909,3	0,002
909,7	0,002
910,2	0,003
910,6	0,003
911	0,002
911,4	0,002
911,9	0,002
912,3	0,002
912,7	0,002
913,1	0,001
913,6	0,002
914	0,002
914,4	0,002
914,8	0,002
915,3	0,002
915,7	0,002
916,1	0,003
916,5	0,003
916,9	0,003
917,4	0,003
917,8	0,002
918,2	0,003
918,6	0,002
919,1	0,002
919,5	0,002
919,9	0,002
920,3	0,002
920,8	0,003
921,2	0,003
921,6	0,003
922	0,003
922,5	0,003
922,9	0,003
923,3	0,003
923,7	0,003
924,2	0,004
924,6	0,004
925	0,004
925,4	0,003
925,8	0,003
926,3	0,003
926,7	0,003
927,1	0,002
927,5	0,002
928	0,002
928,4	0,002
928,8	0,001
929,2	0,002
929,7	0,002
930,1	0,002
930,5	0,002
930,9	0,002
931,3	0,002
931,8	0,002
932,2	0,002
932,6	0,002
933	0,002
933,5	0,002
933,9	0,002
934,3	0,002
934,7	0,002
935,2	0,002
935,6	0,002
936	0,002
936,4	0,002
936,8	0,002
937,3	0,002
937,7	0,002
938,1	0,002
938,5	0,002
939	0,002
939,4	0,002
939,8	0,002
940,2	0,002
940,6	0,002
941,1	0,002
941,5	0,001
941,9	0,002
942,3	0,001
942,8	0,001
943,2	0
943,6	0
944	0,001
944,4	0,001
944,9	0,001
945,3	0,001
945,7	0,002
946,1	0,003
946,6	0,004
947	0,004
947,4	0,004
947,8	0,004
948,2	0,005
948,7	0,005
949,1	0,004
949,5	0,004
949,9	0,004
950,3	0,003
950,8	0,003
951,2	0,004
951,6	0,003
952	0,004
952,5	0,004
952,9	0,004
953,3	0,004
953,7	0,003
954,1	0,003
954,6	0,003
955	0,002
955,4	0,002
955,8	0,002
956,2	0,002
956,7	0,003
957,1	0,002
957,5	0,002
957,9	0,002
958,3	0,001
958,8	0,001
959,2	0,001
959,6	0,001
960	0,001
960,5	0,001
960,9	0,001
961,3	0,002
961,7	0,002
962,1	0,002
962,6	0,002
963	0,003
963,4	0,003
963,8	0,003
964,2	0,003
964,7	0,002
965,1	0,003
965,5	0,002
965,9	0,001
966,3	0,001
966,8	0,002
967,2	0,001
967,6	0,001
968	0
968,4	0,001
968,9	0,001
969,3	0,001
969,7	0,001
970,1	0,001
970,5	0,002
971	0,002
971,4	0,002
971,8	0,002
972,2	0,002
972,6	0,003
973,1	0,003
973,5	0,003
973,9	0,003
974,3	0,002
974,7	0,003
975,2	0,003
975,6	0,003
976	0,003
976,4	0,003
976,8	0,003
977,3	0,004
977,7	0,004
978,1	0,004
978,5	0,004
978,9	0,004
979,4	0,004
979,8	0,004
980,2	0,004
980,6	0,004
981	0,004
981,5	0,004
981,9	0,003
982,3	0,003
982,7	0,003
983,1	0,003
983,6	0,003
984	0,002
984,4	0,002
984,8	0,003
985,2	0,003
985,6	0,003
986,1	0,003
986,5	0,003
986,9	0,004
987,3	0,004
987,7	0,003
988,2	0,003
988,6	0,003
989	0,003
989,4	0,003
989,8	0,003
990,3	0,003
990,7	0,003
991,1	0,004
991,5	0,004
991,9	0,004
992,3	0,005
992,8	0,004
993,2	0,004
993,6	0,004
994	0,004
994,4	0,004
994,9	0,004
995,3	0,004
995,7	0,004
996,1	0,003
996,5	0,003
996,9	0,004
997,4	0,004
997,8	0,003
998,2	0,004
998,6	0,004
999	0,004
999,5	0,004
999,9	0,004
1000,3	0,004
1000,7	0,004
1001,1	0,004
1001,5	0,004
1002	0,004
1002,4	0,004
1002,8	0,004
1003,2	0,004
1003,6	0,004
1004	0,004
1004,5	0,004
1004,9	0,003
1005,3	0,004
1005,7	0,004
1006,1	0,004
1006,6	0,004
1007	0,004
1007,4	0,004
1007,8	0,005
1008,2	0,005
1008,6	0,004
1009,1	0,004
1009,5	0,003
1009,9	0,003
1010,3	0,003
1010,7	0,003
1011,1	0,003
1011,6	0,003
1012	0,003
1012,4	0,003
1012,8	0,003
1013,2	0,004
1013,6	0,004
1014,1	0,004
1014,5	0,004
1014,9	0,003
1015,3	0,004
1015,7	0,004
1016,1	0,003
1016,6	0,003
1017	0,004
1017,4	0,005
1017,8	0,005
1018,2	0,005
1018,6	0,005
1019,1	0,006
1019,5	0,006
1019,9	0,005
1020,3	0,005
1020,7	0,005
1021,1	0,005
1021,6	0,005
1022	0,005
1022,4	0,005
1022,8	0,005
1023,2	0,006
1023,6	0,006
1024,1	0,005
1024,5	0,005
1024,9	0,005
1025,3	0,006
1025,7	0,005
1026,1	0,004
1026,6	0,005
1027	0,005
1027,4	0,005
1027,8	0,005
1028,2	0,005
1028,6	0,006
1029	0,006
1029,5	0,006
1029,9	0,007
1030,3	0,007
1030,7	0,007
1031,1	0,007
1031,5	0,007
1032	0,007
1032,4	0,007
1032,8	0,007
1033,2	0,007
1033,6	0,007
1034	0,007
1034,4	0,007
1034,9	0,007
1035,3	0,007
1035,7	0,007
1036,1	0,007
1036,5	0,007
1036,9	0,007
1037,4	0,007
1037,8	0,006
1038,2	0,006
1038,6	0,006
1039	0,006
1039,4	0,007
1039,8	0,006
1040,3	0,006
1040,7	0,006
1041,1	0,006
1041,5	0,006
1041,9	0,006
1042,3	0,007
1042,7	0,007
1043,2	0,007
1043,6	0,008
1044	0,008
1044,4	0,007
1044,8	0,007
1045,2	0,006
1045,6	0,006
1046,1	0,006
1046,5	0,006
1046,9	0,005
1047,3	0,005
1047,7	0,006
1048,1	0,006
1048,5	0,007
1049	0,007
1049,4	0,006
1049,8	0,007
1050,2	0,007
1050,6	0,007
1051	0,006
1051,4	0,006
1051,9	0,006
1052,3	0,007
1052,7	0,007
1053,1	0,007
1053,5	0,007
1053,9	0,006
1054,3	0,005
1054,8	0,006
1055,2	0,006
1055,6	0,005
1056	0,005
1056,4	0,005
1056,8	0,005
1057,2	0,005
1057,6	0,004
1058,1	0,004
1058,5	0,004
1058,9	0,005
1059,3	0,005
1059,7	0,006
1060,1	0,006
1060,5	0,007
1061	0,006
1061,4	0,006
1061,8	0,006
1062,2	0,005
1062,6	0,006
1063	0,005
1063,4	0,005
1063,8	0,006
1064,3	0,006
1064,7	0,005
1065,1	0,005
1065,5	0,005
1065,9	0,005
1066,3	0,004
1066,7	0,004
1067,1	0,005
1067,6	0,005
1068	0,006
1068,4	0,006
1068,8	0,007
1069,2	0,008
1069,6	0,007
1070	0,008
1070,4	0,008
1070,9	0,008
1071,3	0,007
1071,7	0,008
1072,1	0,007
1072,5	0,007
1072,9	0,006
1073,3	0,006
1073,7	0,006
1074,2	0,007
1074,6	0,008
1075	0,008
1075,4	0,009
1075,8	0,009
1076,2	0,009
1076,6	0,008
1077	0,008
1077,5	0,008
1077,9	0,008
1078,3	0,008
1078,7	0,008
1079,1	0,007
1079,5	0,007
1079,9	0,007
1080,3	0,008
1080,7	0,007
1081,2	0,007
1081,6	0,007
1082	0,009
1082,4	0,01
1082,8	0,01
1083,2	0,007
1083,6	0,008
1084	0,01
1084,5	0,012
1084,9	0,011
1085,3	0,01
1085,7	0,01
1086,1	0,011
1086,5	0,012
1086,9	0,014
1087,3	0,015
1087,7	0,016
1088,2	0,019
1088,6	0,021
1089	0,021
1089,4	0,02
1089,8	0,018
1090,2	0,015
1090,6	0,014
1091	0,014
1091,4	0,014
1091,9	0,015
1092,3	0,016
1092,7	0,014
1093,1	0,014
1093,5	0,014
1093,9	0,013
1094,3	0,012
1094,7	0,013
1095,1	0,016
1095,5	0,019
1096	0,022
1096,4	0,027
1096,8	0,029
1097,2	0,028
1097,6	0,032
1098	0,027
1098,4	0,027
1098,8	0,026
1099,2	0,025
1099,6	0,03
1100,1	0,032
1100,5	0,033
1100,9	0,034
1101,3	0,039
1101,7	0,05
1102,1	0,054
1102,5	0,061
1102,9	0,068
1103,3	0,076
1103,7	0,083
1104,2	0,081
1104,6	0,079
1105	0,072
1105,4	0,068
1105,8	0,063
1106,2	0,054
1106,6	0,052
1107	0,066
1107,4	0,056
1107,8	0,063
1108,3	-0,109
