Data from Absorbance_183.txt Node
Date: Fri Nov 13 20:26:41 MSK 2020
User: vat
Spectrometer: MAYP114033
Trigger mode: 0
Integration Time (sec): 8,000000E-3
Scans to average: 10
Electric dark correction enabled: true
Nonlinearity correction enabled: false
Boxcar width: 3
XAxis mode: Wavelengths
Number of Pixels in Spectrum: 2068
>>>>>Begin Spectral Data<<<<<
199,4	-0
199,9	0,769
200,4	0,354
200,8	0,227
201,3	0,109
201,8	0,119
202,2	0,116
202,7	0,122
203,2	0,098
203,6	0,09
204,1	0,096
204,6	0,099
205	0,098
205,5	0,091
206	0,092
206,4	0,104
206,9	0,116
207,4	0,114
207,8	0,104
208,3	0,113
208,8	0,125
209,2	0,126
209,7	0,113
210,2	0,091
210,6	0,097
211,1	0,122
211,5	0,119
212	0,118
212,5	0,114
212,9	0,129
213,4	0,137
213,9	0,136
214,3	0,146
214,8	0,135
215,3	0,125
215,7	0,12
216,2	0,121
216,7	0,117
217,1	0,117
217,6	0,098
218,1	0,098
218,5	0,1
219	0,1
219,5	0,098
219,9	0,117
220,4	0,124
220,9	0,123
221,3	0,113
221,8	0,127
222,3	0,136
222,7	0,138
223,2	0,15
223,6	0,133
224,1	0,149
224,6	0,18
225	0,18
225,5	0,182
226	0,181
226,4	0,161
226,9	0,171
227,4	0,154
227,8	0,147
228,3	0,145
228,8	0,157
229,2	0,169
229,7	0,173
230,2	0,169
230,6	0,18
231,1	0,18
231,5	0,185
232	0,172
232,5	0,156
232,9	0,175
233,4	0,204
233,9	0,202
234,3	0,204
234,8	0,201
235,3	0,206
235,7	0,223
236,2	0,211
236,7	0,196
237,1	0,204
237,6	0,202
238,1	0,197
238,5	0,203
239	0,201
239,4	0,209
239,9	0,212
240,4	0,209
240,8	0,214
241,3	0,234
241,8	0,235
242,2	0,228
242,7	0,228
243,2	0,231
243,6	0,247
244,1	0,255
244,6	0,249
245	0,243
245,5	0,259
245,9	0,268
246,4	0,27
246,9	0,266
247,3	0,268
247,8	0,286
248,3	0,298
248,7	0,299
249,2	0,307
249,7	0,311
250,1	0,318
250,6	0,316
251	0,312
251,5	0,311
252	0,312
252,4	0,316
252,9	0,322
253,4	0,325
253,8	0,329
254,3	0,334
254,8	0,339
255,2	0,345
255,7	0,351
256,1	0,355
256,6	0,361
257,1	0,369
257,5	0,375
258	0,385
258,5	0,393
258,9	0,401
259,4	0,412
259,9	0,422
260,3	0,431
260,8	0,442
261,2	0,453
261,7	0,465
262,2	0,476
262,6	0,486
263,1	0,498
263,6	0,509
264	0,52
264,5	0,532
264,9	0,544
265,4	0,555
265,9	0,566
266,3	0,578
266,8	0,59
267,3	0,601
267,7	0,611
268,2	0,621
268,7	0,632
269,1	0,645
269,6	0,657
270	0,668
270,5	0,679
271	0,692
271,4	0,703
271,9	0,716
272,4	0,727
272,8	0,738
273,3	0,749
273,7	0,759
274,2	0,77
274,7	0,78
275,1	0,788
275,6	0,797
276,1	0,806
276,5	0,815
277	0,824
277,4	0,832
277,9	0,839
278,4	0,845
278,8	0,85
279,3	0,854
279,8	0,858
280,2	0,861
280,7	0,863
281,1	0,865
281,6	0,867
282,1	0,868
282,5	0,868
283	0,869
283,4	0,867
283,9	0,866
284,4	0,863
284,8	0,861
285,3	0,856
285,8	0,852
286,2	0,846
286,7	0,839
287,1	0,832
287,6	0,825
288,1	0,817
288,5	0,809
289	0,799
289,5	0,789
289,9	0,779
290,4	0,768
290,8	0,756
291,3	0,743
291,8	0,729
292,2	0,715
292,7	0,701
293,1	0,685
293,6	0,669
294,1	0,653
294,5	0,638
295	0,621
295,5	0,605
295,9	0,588
296,4	0,572
296,8	0,555
297,3	0,538
297,8	0,521
298,2	0,504
298,7	0,486
299,1	0,47
299,6	0,453
300,1	0,438
300,5	0,421
301	0,406
301,5	0,391
301,9	0,376
302,4	0,361
302,8	0,346
303,3	0,332
303,8	0,318
304,2	0,304
304,7	0,291
305,1	0,279
305,6	0,267
306,1	0,255
306,5	0,244
307	0,234
307,4	0,224
307,9	0,215
308,4	0,206
308,8	0,197
309,3	0,189
309,8	0,181
310,2	0,173
310,7	0,166
311,1	0,159
311,6	0,152
312,1	0,147
312,5	0,14
313	0,135
313,4	0,131
313,9	0,126
314,4	0,121
314,8	0,117
315,3	0,112
315,7	0,109
316,2	0,105
316,7	0,102
317,1	0,099
317,6	0,096
318	0,093
318,5	0,091
319	0,089
319,4	0,087
319,9	0,085
320,3	0,082
320,8	0,08
321,3	0,078
321,7	0,077
322,2	0,075
322,6	0,074
323,1	0,073
323,6	0,072
324	0,071
324,5	0,069
324,9	0,069
325,4	0,068
325,9	0,067
326,3	0,066
326,8	0,065
327,2	0,065
327,7	0,064
328,2	0,064
328,6	0,063
329,1	0,062
329,5	0,062
330	0,061
330,5	0,06
330,9	0,06
331,4	0,06
331,8	0,059
332,3	0,058
332,8	0,058
333,2	0,057
333,7	0,057
334,1	0,056
334,6	0,056
335,1	0,056
335,5	0,056
336	0,056
336,4	0,056
336,9	0,055
337,4	0,055
337,8	0,055
338,3	0,054
338,7	0,054
339,2	0,054
339,7	0,054
340,1	0,053
340,6	0,053
341	0,053
341,5	0,053
342	0,052
342,4	0,052
342,9	0,052
343,3	0,052
343,8	0,051
344,2	0,051
344,7	0,051
345,2	0,051
345,6	0,051
346,1	0,051
346,5	0,051
347	0,051
347,5	0,05
347,9	0,051
348,4	0,051
348,8	0,051
349,3	0,05
349,8	0,05
350,2	0,049
350,7	0,049
351,1	0,048
351,6	0,048
352	0,048
352,5	0,048
353	0,048
353,4	0,049
353,9	0,048
354,3	0,048
354,8	0,047
355,3	0,047
355,7	0,047
356,2	0,047
356,6	0,047
357,1	0,047
357,5	0,047
358	0,047
358,5	0,047
358,9	0,047
359,4	0,046
359,8	0,046
360,3	0,046
360,8	0,046
361,2	0,046
361,7	0,046
362,1	0,046
362,6	0,046
363	0,046
363,5	0,046
364	0,045
364,4	0,045
364,9	0,045
365,3	0,045
365,8	0,045
366,3	0,044
366,7	0,044
367,2	0,043
367,6	0,043
368,1	0,042
368,5	0,042
369	0,042
369,5	0,041
369,9	0,042
370,4	0,042
370,8	0,042
371,3	0,042
371,7	0,042
372,2	0,042
372,7	0,042
373,1	0,041
373,6	0,041
374	0,041
374,5	0,041
374,9	0,041
375,4	0,041
375,9	0,041
376,3	0,04
376,8	0,04
377,2	0,04
377,7	0,039
378,2	0,039
378,6	0,039
379,1	0,039
379,5	0,039
380	0,039
380,4	0,039
380,9	0,039
381,4	0,038
381,8	0,038
382,3	0,038
382,7	0,038
383,2	0,038
383,6	0,038
384,1	0,038
384,6	0,037
385	0,037
385,5	0,037
385,9	0,037
386,4	0,036
386,8	0,037
387,3	0,037
387,7	0,037
388,2	0,037
388,7	0,037
389,1	0,037
389,6	0,037
390	0,037
390,5	0,037
390,9	0,037
391,4	0,036
391,9	0,036
392,3	0,036
392,8	0,035
393,2	0,035
393,7	0,035
394,1	0,034
394,6	0,034
395,1	0,034
395,5	0,033
396	0,034
396,4	0,034
396,9	0,034
397,3	0,034
397,8	0,034
398,2	0,033
398,7	0,033
399,2	0,033
399,6	0,033
400,1	0,033
400,5	0,033
401	0,033
401,4	0,033
401,9	0,032
402,4	0,032
402,8	0,032
403,3	0,032
403,7	0,032
404,2	0,031
404,6	0,031
405,1	0,031
405,5	0,031
406	0,031
406,5	0,031
406,9	0,03
407,4	0,031
407,8	0,031
408,3	0,031
408,7	0,031
409,2	0,031
409,6	0,031
410,1	0,031
410,6	0,03
411	0,03
411,5	0,03
411,9	0,03
412,4	0,03
412,8	0,03
413,3	0,03
413,7	0,03
414,2	0,03
414,7	0,03
415,1	0,03
415,6	0,03
416	0,03
416,5	0,03
416,9	0,03
417,4	0,031
417,8	0,031
418,3	0,03
418,8	0,03
419,2	0,03
419,7	0,03
420,1	0,03
420,6	0,029
421	0,029
421,5	0,029
421,9	0,029
422,4	0,03
422,8	0,03
423,3	0,029
423,8	0,029
424,2	0,029
424,7	0,029
425,1	0,029
425,6	0,028
426	0,028
426,5	0,027
426,9	0,027
427,4	0,027
427,9	0,027
428,3	0,027
428,8	0,027
429,2	0,027
429,7	0,027
430,1	0,027
430,6	0,027
431	0,027
431,5	0,027
431,9	0,028
432,4	0,028
432,8	0,027
433,3	0,027
433,8	0,027
434,2	0,027
434,7	0,027
435,1	0,027
435,6	0,026
436	0,027
436,5	0,026
436,9	0,026
437,4	0,026
437,8	0,026
438,3	0,026
438,8	0,026
439,2	0,027
439,7	0,026
440,1	0,026
440,6	0,027
441	0,027
441,5	0,027
441,9	0,027
442,4	0,026
442,8	0,026
443,3	0,026
443,7	0,026
444,2	0,025
444,7	0,025
445,1	0,025
445,6	0,025
446	0,025
446,5	0,025
446,9	0,025
447,4	0,025
447,8	0,025
448,3	0,025
448,7	0,025
449,2	0,024
449,6	0,024
450,1	0,024
450,6	0,024
451	0,024
451,5	0,025
451,9	0,025
452,4	0,025
452,8	0,025
453,3	0,025
453,7	0,025
454,2	0,025
454,6	0,024
455,1	0,025
455,5	0,025
456	0,025
456,4	0,025
456,9	0,024
457,3	0,024
457,8	0,024
458,3	0,023
458,7	0,023
459,2	0,023
459,6	0,023
460,1	0,023
460,5	0,023
461	0,024
461,4	0,024
461,9	0,024
462,3	0,024
462,8	0,024
463,2	0,024
463,7	0,024
464,1	0,024
464,6	0,023
465	0,023
465,5	0,023
466	0,023
466,4	0,023
466,9	0,022
467,3	0,022
467,8	0,022
468,2	0,022
468,7	0,022
469,1	0,023
469,6	0,022
470	0,023
470,5	0,022
470,9	0,022
471,4	0,022
471,8	0,023
472,3	0,023
472,7	0,023
473,2	0,023
473,6	0,023
474,1	0,023
474,5	0,022
475	0,022
475,4	0,022
475,9	0,022
476,4	0,022
476,8	0,022
477,3	0,022
477,7	0,022
478,2	0,022
478,6	0,022
479,1	0,022
479,5	0,021
480	0,022
480,4	0,021
480,9	0,022
481,3	0,022
481,8	0,022
482,2	0,022
482,7	0,022
483,1	0,022
483,6	0,023
484	0,022
484,5	0,021
484,9	0,021
485,4	0,021
485,8	0,02
486,3	0,02
486,7	0,019
487,2	0,019
487,6	0,02
488,1	0,02
488,5	0,02
489	0,021
489,4	0,021
489,9	0,02
490,4	0,02
490,8	0,021
491,3	0,021
491,7	0,021
492,2	0,021
492,6	0,021
493,1	0,021
493,5	0,021
494	0,02
494,4	0,021
494,9	0,02
495,3	0,02
495,8	0,019
496,2	0,019
496,7	0,019
497,1	0,02
497,6	0,02
498	0,02
498,5	0,02
498,9	0,02
499,4	0,02
499,8	0,02
500,3	0,02
500,7	0,02
501,2	0,02
501,6	0,02
502,1	0,019
502,5	0,019
503	0,019
503,4	0,019
503,9	0,019
504,3	0,019
504,8	0,019
505,2	0,02
505,7	0,019
506,1	0,019
506,6	0,019
507	0,019
507,5	0,019
507,9	0,019
508,4	0,019
508,8	0,019
509,3	0,019
509,7	0,018
510,2	0,018
510,6	0,018
511,1	0,017
511,5	0,017
512	0,017
512,4	0,017
512,9	0,017
513,3	0,017
513,8	0,018
514,2	0,018
514,7	0,018
515,1	0,018
515,6	0,018
516	0,017
516,5	0,018
516,9	0,017
517,4	0,016
517,8	0,015
518,3	0,016
518,7	0,015
519,2	0,015
519,6	0,016
520,1	0,016
520,5	0,016
521	0,016
521,4	0,016
521,9	0,016
522,3	0,017
522,8	0,016
523,2	0,016
523,7	0,017
524,1	0,016
524,6	0,017
525	0,017
525,5	0,016
525,9	0,016
526,4	0,016
526,8	0,016
527,3	0,016
527,7	0,016
528,2	0,015
528,6	0,015
529,1	0,015
529,5	0,015
530	0,015
530,4	0,015
530,9	0,015
531,3	0,016
531,8	0,016
532,2	0,016
532,6	0,015
533,1	0,016
533,5	0,015
534	0,015
534,4	0,015
534,9	0,015
535,3	0,015
535,8	0,015
536,2	0,014
536,7	0,015
537,1	0,015
537,6	0,015
538	0,016
538,5	0,015
538,9	0,015
539,4	0,015
539,8	0,015
540,3	0,015
540,7	0,014
541,2	0,014
541,6	0,014
542,1	0,015
542,5	0,014
543	0,014
543,4	0,014
543,9	0,014
544,3	0,014
544,8	0,014
545,2	0,014
545,7	0,014
546,1	0,014
546,5	0,014
547	0,014
547,4	0,014
547,9	0,013
548,3	0,013
548,8	0,013
549,2	0,013
549,7	0,012
550,1	0,012
550,6	0,012
551	0,013
551,5	0,013
551,9	0,013
552,4	0,013
552,8	0,013
553,3	0,013
553,7	0,013
554,2	0,013
554,6	0,013
555,1	0,012
555,5	0,012
555,9	0,012
556,4	0,012
556,8	0,012
557,3	0,012
557,7	0,012
558,2	0,012
558,6	0,012
559,1	0,013
559,5	0,012
560	0,012
560,4	0,012
560,9	0,012
561,3	0,012
561,8	0,012
562,2	0,011
562,7	0,011
563,1	0,011
563,6	0,011
564	0,011
564,4	0,011
564,9	0,011
565,3	0,011
565,8	0,011
566,2	0,011
566,7	0,011
567,1	0,011
567,6	0,012
568	0,012
568,5	0,012
568,9	0,012
569,4	0,012
569,8	0,012
570,3	0,012
570,7	0,011
571,1	0,012
571,6	0,011
572	0,011
572,5	0,011
572,9	0,011
573,4	0,011
573,8	0,011
574,3	0,011
574,7	0,011
575,2	0,011
575,6	0,011
576,1	0,01
576,5	0,01
576,9	0,01
577,4	0,01
577,8	0,01
578,3	0,01
578,7	0,01
579,2	0,01
579,6	0,01
580,1	0,01
580,5	0,01
581	0,01
581,4	0,01
581,9	0,009
582,3	0,009
582,7	0,009
583,2	0,01
583,6	0,01
584,1	0,01
584,5	0,01
585	0,011
585,4	0,011
585,9	0,01
586,3	0,01
586,8	0,01
587,2	0,01
587,6	0,01
588,1	0,01
588,5	0,009
589	0,009
589,4	0,01
589,9	0,009
590,3	0,01
590,8	0,01
591,2	0,01
591,7	0,01
592,1	0,01
592,5	0,01
593	0,01
593,4	0,01
593,9	0,009
594,3	0,009
594,8	0,009
595,2	0,009
595,7	0,009
596,1	0,009
596,6	0,009
597	0,009
597,4	0,009
597,9	0,009
598,3	0,009
598,8	0,009
599,2	0,009
599,7	0,009
600,1	0,009
600,6	0,009
601	0,009
601,4	0,008
601,9	0,008
602,3	0,008
602,8	0,008
603,2	0,008
603,7	0,007
604,1	0,008
604,6	0,008
605	0,008
605,4	0,008
605,9	0,008
606,3	0,008
606,8	0,008
607,2	0,008
607,7	0,007
608,1	0,008
608,6	0,007
609	0,007
609,4	0,007
609,9	0,008
610,3	0,008
610,8	0,008
611,2	0,008
611,7	0,008
612,1	0,008
612,6	0,008
613	0,008
613,4	0,008
613,9	0,008
614,3	0,008
614,8	0,008
615,2	0,007
615,7	0,007
616,1	0,007
616,6	0,007
617	0,007
617,4	0,007
617,9	0,007
618,3	0,007
618,8	0,007
619,2	0,007
619,7	0,007
620,1	0,008
620,5	0,007
621	0,008
621,4	0,008
621,9	0,008
622,3	0,008
622,8	0,008
623,2	0,008
623,6	0,008
624,1	0,008
624,5	0,007
625	0,007
625,4	0,007
625,9	0,007
626,3	0,007
626,8	0,007
627,2	0,007
627,6	0,008
628,1	0,007
628,5	0,007
629	0,007
629,4	0,007
629,9	0,007
630,3	0,007
630,7	0,007
631,2	0,006
631,6	0,006
632,1	0,006
632,5	0,007
633	0,006
633,4	0,007
633,8	0,007
634,3	0,007
634,7	0,007
635,2	0,007
635,6	0,007
636,1	0,007
636,5	0,006
636,9	0,006
637,4	0,006
637,8	0,006
638,3	0,006
638,7	0,006
639,2	0,006
639,6	0,006
640	0,007
640,5	0,007
640,9	0,007
641,4	0,007
641,8	0,007
642,2	0,007
642,7	0,007
643,1	0,006
643,6	0,006
644	0,005
644,5	0,005
644,9	0,005
645,3	0,006
645,8	0,006
646,2	0,006
646,7	0,006
647,1	0,006
647,6	0,006
648	0,006
648,4	0,006
648,9	0,006
649,3	0,006
649,8	0,006
650,2	0,006
650,6	0,005
651,1	0,005
651,5	0,005
652	0,005
652,4	0,005
652,9	0,006
653,3	0,008
653,7	0,013
654,2	0,009
654,6	0,007
655,1	0,005
655,5	0,005
655,9	0,004
656,4	0,003
656,8	0,001
657,3	0,001
657,7	0,002
658,2	0,003
658,6	0,004
659	0,004
659,5	0,005
659,9	0,005
660,4	0,005
660,8	0,005
661,2	0,005
661,7	0,004
662,1	0,004
662,6	0,004
663	0,004
663,4	0,004
663,9	0,004
664,3	0,004
664,8	0,004
665,2	0,004
665,6	0,004
666,1	0,004
666,5	0,004
667	0,004
667,4	0,004
667,9	0,004
668,3	0,004
668,7	0,005
669,2	0,005
669,6	0,004
670,1	0,005
670,5	0,005
670,9	0,005
671,4	0,005
671,8	0,005
672,3	0,005
672,7	0,005
673,1	0,005
673,6	0,005
674	0,004
674,5	0,005
674,9	0,004
675,3	0,005
675,8	0,005
676,2	0,005
676,7	0,005
677,1	0,005
677,5	0,005
678	0,006
678,4	0,005
678,9	0,005
679,3	0,004
679,7	0,004
680,2	0,004
680,6	0,004
681,1	0,004
681,5	0,004
681,9	0,004
682,4	0,004
682,8	0,005
683,3	0,005
683,7	0,005
684,1	0,005
684,6	0,005
685	0,004
685,5	0,004
685,9	0,004
686,3	0,004
686,8	0,004
687,2	0,004
687,7	0,004
688,1	0,004
688,5	0,004
689	0,004
689,4	0,005
689,9	0,005
690,3	0,005
690,7	0,005
691,2	0,005
691,6	0,004
692	0,004
692,5	0,004
692,9	0,004
693,4	0,004
693,8	0,004
694,2	0,004
694,7	0,004
695,1	0,004
695,6	0,005
696	0,005
696,4	0,005
696,9	0,005
697,3	0,004
697,8	0,004
698,2	0,004
698,6	0,004
699,1	0,004
699,5	0,004
699,9	0,004
700,4	0,004
700,8	0,004
701,3	0,004
701,7	0,003
702,1	0,004
702,6	0,004
703	0,004
703,5	0,004
703,9	0,004
704,3	0,004
704,8	0,004
705,2	0,005
705,6	0,005
706,1	0,004
706,5	0,004
707	0,004
707,4	0,004
707,8	0,004
708,3	0,004
708,7	0,004
709,2	0,004
709,6	0,004
710	0,004
710,5	0,003
710,9	0,004
711,3	0,004
711,8	0,003
712,2	0,003
712,7	0,003
713,1	0,003
713,5	0,004
714	0,004
714,4	0,004
714,8	0,004
715,3	0,004
715,7	0,005
716,2	0,004
716,6	0,004
717	0,004
717,5	0,004
717,9	0,004
718,3	0,004
718,8	0,004
719,2	0,004
719,7	0,004
720,1	0,004
720,5	0,004
721	0,004
721,4	0,004
721,8	0,004
722,3	0,004
722,7	0,003
723,2	0,003
723,6	0,003
724	0,004
724,5	0,004
724,9	0,003
725,3	0,004
725,8	0,004
726,2	0,004
726,7	0,004
727,1	0,004
727,5	0,004
728	0,004
728,4	0,004
728,8	0,004
729,3	0,004
729,7	0,004
730,1	0,005
730,6	0,005
731	0,004
731,5	0,004
731,9	0,004
732,3	0,004
732,8	0,004
733,2	0,003
733,6	0,003
734,1	0,003
734,5	0,003
734,9	0,003
735,4	0,004
735,8	0,004
736,3	0,004
736,7	0,004
737,1	0,004
737,6	0,004
738	0,004
738,4	0,004
738,9	0,003
739,3	0,003
739,7	0,003
740,2	0,003
740,6	0,003
741,1	0,003
741,5	0,004
741,9	0,004
742,4	0,004
742,8	0,004
743,2	0,004
743,7	0,003
744,1	0,003
744,5	0,003
745	0,003
745,4	0,003
745,8	0,003
746,3	0,003
746,7	0,003
747,2	0,003
747,6	0,003
748	0,003
748,5	0,003
748,9	0,003
749,3	0,003
749,8	0,003
750,2	0,003
750,6	0,004
751,1	0,004
751,5	0,004
751,9	0,003
752,4	0,004
752,8	0,003
753,3	0,004
753,7	0,004
754,1	0,004
754,6	0,004
755	0,004
755,4	0,004
755,9	0,004
756,3	0,003
756,7	0,003
757,2	0,003
757,6	0,003
758	0,003
758,5	0,004
758,9	0,003
759,3	0,004
759,8	0,004
760,2	0,004
760,6	0,004
761,1	0,004
761,5	0,004
761,9	0,004
762,4	0,004
762,8	0,004
763,3	0,004
763,7	0,004
764,1	0,004
764,6	0,004
765	0,004
765,4	0,004
765,9	0,004
766,3	0,004
766,7	0,004
767,2	0,005
767,6	0,005
768	0,004
768,5	0,004
768,9	0,005
769,3	0,004
769,8	0,004
770,2	0,004
770,6	0,004
771,1	0,004
771,5	0,004
771,9	0,003
772,4	0,003
772,8	0,003
773,2	0,003
773,7	0,003
774,1	0,003
774,5	0,002
775	0,002
775,4	0,002
775,8	0,002
776,3	0,002
776,7	0,002
777,1	0,002
777,6	0,002
778	0,002
778,4	0,002
778,9	0,002
779,3	0,002
779,7	0,002
780,2	0,002
780,6	0,003
781	0,003
781,5	0,003
781,9	0,003
782,3	0,003
782,8	0,003
783,2	0,003
783,6	0,002
784,1	0,002
784,5	0,002
784,9	0,002
785,4	0,002
785,8	0,002
786,2	0,002
786,7	0,002
787,1	0,003
787,5	0,003
788	0,003
788,4	0,004
788,8	0,004
789,3	0,004
789,7	0,004
790,1	0,004
790,6	0,004
791	0,004
791,4	0,004
791,9	0,004
792,3	0,004
792,7	0,004
793,2	0,004
793,6	0,004
794	0,004
794,5	0,004
794,9	0,004
795,3	0,004
795,8	0,005
796,2	0,005
796,6	0,005
797,1	0,005
797,5	0,004
797,9	0,004
798,4	0,004
798,8	0,003
799,2	0,003
799,7	0,003
800,1	0,003
800,5	0,003
801	0,004
801,4	0,004
801,8	0,004
802,2	0,004
802,7	0,004
803,1	0,005
803,5	0,004
804	0,004
804,4	0,004
804,8	0,004
805,3	0,004
805,7	0,003
806,1	0,003
806,6	0,004
807	0,004
807,4	0,004
807,9	0,004
808,3	0,004
808,7	0,004
809,2	0,004
809,6	0,004
810	0,004
810,4	0,004
810,9	0,003
811,3	0,003
811,7	0,003
812,2	0,003
812,6	0,003
813	0,002
813,5	0,002
813,9	0,003
814,3	0,003
814,8	0,003
815,2	0,003
815,6	0,003
816,1	0,003
816,5	0,002
816,9	0,002
817,3	0,003
817,8	0,003
818,2	0,003
818,6	0,003
819,1	0,003
819,5	0,003
819,9	0,003
820,4	0,003
820,8	0,003
821,2	0,003
821,7	0,002
822,1	0,002
822,5	0,002
822,9	0,003
823,4	0,003
823,8	0,003
824,2	0,003
824,7	0,003
825,1	0,004
825,5	0,004
826	0,004
826,4	0,003
826,8	0,003
827,3	0,003
827,7	0,003
828,1	0,003
828,5	0,003
829	0,003
829,4	0,003
829,8	0,004
830,3	0,004
830,7	0,004
831,1	0,004
831,6	0,004
832	0,003
832,4	0,003
832,8	0,003
833,3	0,003
833,7	0,004
834,1	0,004
834,6	0,003
835	0,003
835,4	0,003
835,8	0,003
836,3	0,003
836,7	0,002
837,1	0,002
837,6	0,002
838	0,002
838,4	0,002
838,9	0,002
839,3	0,002
839,7	0,002
840,1	0,003
840,6	0,003
841	0,003
841,4	0,003
841,9	0,003
842,3	0,003
842,7	0,003
843,1	0,003
843,6	0,003
844	0,003
844,4	0,003
844,9	0,003
845,3	0,003
845,7	0,003
846,2	0,003
846,6	0,003
847	0,003
847,4	0,002
847,9	0,002
848,3	0,002
848,7	0,002
849,2	0,002
849,6	0,002
850	0,002
850,4	0,002
850,9	0,002
851,3	0,003
851,7	0,003
852,2	0,003
852,6	0,003
853	0,003
853,4	0,003
853,9	0,003
854,3	0,003
854,7	0,003
855,2	0,003
855,6	0,003
856	0,003
856,4	0,003
856,9	0,003
857,3	0,003
857,7	0,003
858,2	0,004
858,6	0,004
859	0,004
859,4	0,004
859,9	0,004
860,3	0,004
860,7	0,003
861,1	0,003
861,6	0,003
862	0,002
862,4	0,002
862,9	0,002
863,3	0,002
863,7	0,003
864,1	0,003
864,6	0,003
865	0,004
865,4	0,004
865,9	0,004
866,3	0,004
866,7	0,004
867,1	0,004
867,6	0,003
868	0,003
868,4	0,003
868,8	0,003
869,3	0,003
869,7	0,003
870,1	0,004
870,6	0,004
871	0,004
871,4	0,003
871,8	0,003
872,3	0,002
872,7	0,003
873,1	0,002
873,5	0,002
874	0,003
874,4	0,003
874,8	0,003
875,3	0,003
875,7	0,003
876,1	0,004
876,5	0,003
877	0,003
877,4	0,003
877,8	0,004
878,2	0,003
878,7	0,003
879,1	0,003
879,5	0,003
879,9	0,003
880,4	0,003
880,8	0,002
881,2	0,003
881,7	0,003
882,1	0,004
882,5	0,004
882,9	0,004
883,4	0,004
883,8	0,004
884,2	0,004
884,6	0,004
885,1	0,003
885,5	0,003
885,9	0,003
886,3	0,003
886,8	0,002
887,2	0,003
887,6	0,003
888	0,003
888,5	0,003
888,9	0,003
889,3	0,004
889,8	0,004
890,2	0,004
890,6	0,004
891	0,004
891,5	0,004
891,9	0,004
892,3	0,004
892,7	0,003
893,2	0,003
893,6	0,003
894	0,004
894,4	0,004
894,9	0,004
895,3	0,004
895,7	0,004
896,1	0,004
896,6	0,004
897	0,004
897,4	0,003
897,8	0,003
898,3	0,003
898,7	0,003
899,1	0,004
899,5	0,003
900	0,003
900,4	0,004
900,8	0,004
901,2	0,004
901,7	0,004
902,1	0,004
902,5	0,004
902,9	0,004
903,4	0,004
903,8	0,004
904,2	0,004
904,6	0,004
905,1	0,004
905,5	0,004
905,9	0,005
906,3	0,004
906,8	0,004
907,2	0,004
907,6	0,004
908	0,004
908,5	0,004
908,9	0,004
909,3	0,004
909,7	0,004
910,2	0,004
910,6	0,004
911	0,004
911,4	0,004
911,9	0,004
912,3	0,003
912,7	0,003
913,1	0,003
913,6	0,003
914	0,003
914,4	0,002
914,8	0,002
915,3	0,003
915,7	0,003
916,1	0,003
916,5	0,002
916,9	0,002
917,4	0,002
917,8	0,002
918,2	0,002
918,6	0,001
919,1	0,001
919,5	0,001
919,9	0,002
920,3	0,002
920,8	0,002
921,2	0,002
921,6	0,003
922	0,003
922,5	0,003
922,9	0,004
923,3	0,004
923,7	0,004
924,2	0,003
924,6	0,003
925	0,003
925,4	0,003
925,8	0,002
926,3	0,003
926,7	0,003
927,1	0,003
927,5	0,002
928	0,002
928,4	0,002
928,8	0,002
929,2	0,002
929,7	0,003
930,1	0,003
930,5	0,003
930,9	0,003
931,3	0,003
931,8	0,003
932,2	0,003
932,6	0,003
933	0,004
933,5	0,004
933,9	0,004
934,3	0,004
934,7	0,004
935,2	0,004
935,6	0,004
936	0,003
936,4	0,003
936,8	0,003
937,3	0,003
937,7	0,003
938,1	0,003
938,5	0,003
939	0,002
939,4	0,002
939,8	0,002
940,2	0,002
940,6	0,002
941,1	0,002
941,5	0,002
941,9	0,002
942,3	0,002
942,8	0,002
943,2	0,002
943,6	0,002
944	0,002
944,4	0,002
944,9	0,002
945,3	0,001
945,7	0,002
946,1	0,002
946,6	0,002
947	0,002
947,4	0,001
947,8	0,002
948,2	0,002
948,7	0,002
949,1	0,002
949,5	0,003
949,9	0,003
950,3	0,003
950,8	0,003
951,2	0,003
951,6	0,003
952	0,003
952,5	0,003
952,9	0,002
953,3	0,002
953,7	0,002
954,1	0,003
954,6	0,003
955	0,003
955,4	0,003
955,8	0,003
956,2	0,004
956,7	0,003
957,1	0,003
957,5	0,003
957,9	0,003
958,3	0,002
958,8	0,002
959,2	0,002
959,6	0,002
960	0,002
960,5	0,001
960,9	0,001
961,3	0,002
961,7	0,002
962,1	0,003
962,6	0,003
963	0,004
963,4	0,005
963,8	0,005
964,2	0,005
964,7	0,005
965,1	0,005
965,5	0,004
965,9	0,005
966,3	0,005
966,8	0,004
967,2	0,004
967,6	0,004
968	0,004
968,4	0,004
968,9	0,004
969,3	0,004
969,7	0,004
970,1	0,004
970,5	0,004
971	0,003
971,4	0,003
971,8	0,003
972,2	0,003
972,6	0,002
973,1	0,002
973,5	0,002
973,9	0,002
974,3	0,002
974,7	0,002
975,2	0,002
975,6	0,002
976	0,002
976,4	0,003
976,8	0,003
977,3	0,003
977,7	0,003
978,1	0,003
978,5	0,002
978,9	0,003
979,4	0,003
979,8	0,003
980,2	0,003
980,6	0,003
981	0,003
981,5	0,003
981,9	0,003
982,3	0,003
982,7	0,002
983,1	0,002
983,6	0,002
984	0,002
984,4	0,003
984,8	0,003
985,2	0,003
985,6	0,003
986,1	0,004
986,5	0,004
986,9	0,005
987,3	0,005
987,7	0,005
988,2	0,006
988,6	0,006
989	0,006
989,4	0,005
989,8	0,005
990,3	0,005
990,7	0,004
991,1	0,003
991,5	0,003
991,9	0,003
992,3	0,003
992,8	0,003
993,2	0,002
993,6	0,003
994	0,003
994,4	0,003
994,9	0,003
995,3	0,003
995,7	0,004
996,1	0,004
996,5	0,004
996,9	0,004
997,4	0,004
997,8	0,004
998,2	0,004
998,6	0,004
999	0,003
999,5	0,003
999,9	0,003
1000,3	0,003
1000,7	0,003
1001,1	0,004
1001,5	0,004
1002	0,005
1002,4	0,005
1002,8	0,005
1003,2	0,005
1003,6	0,005
1004	0,006
1004,5	0,006
1004,9	0,005
1005,3	0,006
1005,7	0,005
1006,1	0,006
1006,6	0,005
1007	0,005
1007,4	0,004
1007,8	0,004
1008,2	0,004
1008,6	0,004
1009,1	0,004
1009,5	0,004
1009,9	0,004
1010,3	0,004
1010,7	0,005
1011,1	0,005
1011,6	0,005
1012	0,005
1012,4	0,005
1012,8	0,005
1013,2	0,005
1013,6	0,005
1014,1	0,005
1014,5	0,005
1014,9	0,005
1015,3	0,005
1015,7	0,006
1016,1	0,006
1016,6	0,007
1017	0,007
1017,4	0,007
1017,8	0,007
1018,2	0,007
1018,6	0,007
1019,1	0,006
1019,5	0,006
1019,9	0,006
1020,3	0,005
1020,7	0,005
1021,1	0,005
1021,6	0,005
1022	0,005
1022,4	0,005
1022,8	0,006
1023,2	0,007
1023,6	0,007
1024,1	0,007
1024,5	0,007
1024,9	0,007
1025,3	0,006
1025,7	0,006
1026,1	0,006
1026,6	0,005
1027	0,004
1027,4	0,004
1027,8	0,004
1028,2	0,005
1028,6	0,005
1029	0,005
1029,5	0,006
1029,9	0,006
1030,3	0,007
1030,7	0,008
1031,1	0,008
1031,5	0,008
1032	0,007
1032,4	0,007
1032,8	0,007
1033,2	0,006
1033,6	0,005
1034	0,005
1034,4	0,005
1034,9	0,005
1035,3	0,005
1035,7	0,005
1036,1	0,005
1036,5	0,006
1036,9	0,006
1037,4	0,006
1037,8	0,006
1038,2	0,006
1038,6	0,006
1039	0,007
1039,4	0,006
1039,8	0,006
1040,3	0,006
1040,7	0,005
1041,1	0,005
1041,5	0,005
1041,9	0,006
1042,3	0,006
1042,7	0,006
1043,2	0,006
1043,6	0,007
1044	0,006
1044,4	0,006
1044,8	0,006
1045,2	0,005
1045,6	0,005
1046,1	0,005
1046,5	0,004
1046,9	0,005
1047,3	0,004
1047,7	0,004
1048,1	0,004
1048,5	0,004
1049	0,004
1049,4	0,005
1049,8	0,005
1050,2	0,004
1050,6	0,006
1051	0,006
1051,4	0,007
1051,9	0,007
1052,3	0,007
1052,7	0,007
1053,1	0,008
1053,5	0,007
1053,9	0,007
1054,3	0,007
1054,8	0,007
1055,2	0,007
1055,6	0,007
1056	0,008
1056,4	0,006
1056,8	0,007
1057,2	0,006
1057,6	0,007
1058,1	0,007
1058,5	0,007
1058,9	0,007
1059,3	0,008
1059,7	0,009
1060,1	0,008
1060,5	0,008
1061	0,008
1061,4	0,007
1061,8	0,007
1062,2	0,007
1062,6	0,006
1063	0,007
1063,4	0,006
1063,8	0,006
1064,3	0,007
1064,7	0,006
1065,1	0,006
1065,5	0,007
1065,9	0,005
1066,3	0,006
1066,7	0,006
1067,1	0,006
1067,6	0,007
1068	0,007
1068,4	0,006
1068,8	0,008
1069,2	0,008
1069,6	0,009
1070	0,009
1070,4	0,01
1070,9	0,01
1071,3	0,01
1071,7	0,01
1072,1	0,01
1072,5	0,009
1072,9	0,009
1073,3	0,007
1073,7	0,008
1074,2	0,009
1074,6	0,008
1075	0,009
1075,4	0,009
1075,8	0,009
1076,2	0,01
1076,6	0,01
1077	0,009
1077,5	0,01
1077,9	0,01
1078,3	0,01
1078,7	0,011
1079,1	0,011
1079,5	0,011
1079,9	0,011
1080,3	0,011
1080,7	0,011
1081,2	0,011
1081,6	0,011
1082	0,011
1082,4	0,012
1082,8	0,012
1083,2	0,014
1083,6	0,012
1084	0,01
1084,5	0,009
1084,9	0,011
1085,3	0,011
1085,7	0,011
1086,1	0,009
1086,5	0,012
1086,9	0,013
1087,3	0,015
1087,7	0,016
1088,2	0,017
1088,6	0,017
1089	0,019
1089,4	0,018
1089,8	0,021
1090,2	0,019
1090,6	0,018
1091	0,018
1091,4	0,018
1091,9	0,016
1092,3	0,019
1092,7	0,02
1093,1	0,022
1093,5	0,022
1093,9	0,021
1094,3	0,019
1094,7	0,022
1095,1	0,022
1095,5	0,016
1096	0,018
1096,4	0,017
1096,8	0,015
1097,2	0,026
1097,6	0,021
1098	0,016
1098,4	0,023
1098,8	0,021
1099,2	0,03
1099,6	0,043
1100,1	0,043
1100,5	0,052
1100,9	0,06
1101,3	0,065
1101,7	0,06
1102,1	0,061
1102,5	0,052
1102,9	0,049
1103,3	0,036
1103,7	0,042
1104,2	0,048
1104,6	0,06
1105	0,054
1105,4	0,059
1105,8	0,065
1106,2	0,092
1106,6	0,09
1107	0,081
1107,4	0,074
1107,8	0,11
1108,3	-0
