Data from Absorbance_020.txt Node
Date: Fri Nov 13 12:52:40 MSK 2020
User: vat
Spectrometer: MAYP114033
Trigger mode: 0
Integration Time (sec): 8,000000E-3
Scans to average: 10
Electric dark correction enabled: true
Nonlinearity correction enabled: false
Boxcar width: 3
XAxis mode: Wavelengths
Number of Pixels in Spectrum: 2068
>>>>>Begin Spectral Data<<<<<
199,4	-0,848
199,9	-0,187
200,4	-0,089
200,8	-0,045
201,3	-0,035
201,8	0,006
202,2	0,007
202,7	-0,002
203,2	0,003
203,6	0,016
204,1	0,029
204,6	0,023
205	0,009
205,5	0,009
206	0,024
206,4	0,02
206,9	0,004
207,4	-0,02
207,8	-0
208,3	0,012
208,8	0,015
209,2	0,016
209,7	0,019
210,2	0,024
210,6	0,035
211,1	0,017
211,5	0,013
212	0,007
212,5	-0,014
212,9	-0,003
213,4	0,002
213,9	0,001
214,3	0,021
214,8	0,011
215,3	0,019
215,7	0,034
216,2	0,027
216,7	0,025
217,1	0,025
217,6	0,016
218,1	0,042
218,5	0,021
219	0,013
219,5	0,02
219,9	0,017
220,4	0,014
220,9	0,009
221,3	-0,01
221,8	0,001
222,3	0,017
222,7	0,013
223,2	0,016
223,6	0,04
224,1	0,048
224,6	0,047
225	0,049
225,5	0,029
226	0,03
226,4	0,031
226,9	0,011
227,4	0,011
227,8	0,021
228,3	0,027
228,8	0,028
229,2	0,019
229,7	0,037
230,2	0,045
230,6	0,052
231,1	0,054
231,5	0,062
232	0,077
232,5	0,073
232,9	0,056
233,4	0,051
233,9	0,054
234,3	0,065
234,8	0,059
235,3	0,055
235,7	0,062
236,2	0,061
236,7	0,072
237,1	0,054
237,6	0,044
238,1	0,056
238,5	0,076
239	0,083
239,4	0,078
239,9	0,073
240,4	0,084
240,8	0,095
241,3	0,099
241,8	0,089
242,2	0,097
242,7	0,121
243,2	0,127
243,6	0,141
244,1	0,143
244,6	0,139
245	0,151
245,5	0,161
245,9	0,169
246,4	0,183
246,9	0,203
247,3	0,217
247,8	0,241
248,3	0,259
248,7	0,269
249,2	0,283
249,7	0,302
250,1	0,319
250,6	0,328
251	0,341
251,5	0,353
252	0,365
252,4	0,377
252,9	0,385
253,4	0,396
253,8	0,409
254,3	0,417
254,8	0,433
255,2	0,449
255,7	0,463
256,1	0,477
256,6	0,489
257,1	0,504
257,5	0,52
258	0,533
258,5	0,547
258,9	0,564
259,4	0,579
259,9	0,597
260,3	0,615
260,8	0,633
261,2	0,652
261,7	0,671
262,2	0,688
262,6	0,71
263,1	0,73
263,6	0,75
264	0,77
264,5	0,791
264,9	0,812
265,4	0,834
265,9	0,853
266,3	0,873
266,8	0,894
267,3	0,916
267,7	0,937
268,2	0,959
268,7	0,977
269,1	0,999
269,6	1,02
270	1,04
270,5	1,062
271	1,082
271,4	1,102
271,9	1,127
272,4	1,146
272,8	1,164
273,3	1,182
273,7	1,202
274,2	1,218
274,7	1,234
275,1	1,251
275,6	1,267
276,1	1,283
276,5	1,298
277	1,307
277,4	1,323
277,9	1,335
278,4	1,343
278,8	1,354
279,3	1,365
279,8	1,376
280,2	1,385
280,7	1,392
281,1	1,398
281,6	1,402
282,1	1,401
282,5	1,4
283	1,396
283,4	1,395
283,9	1,391
284,4	1,387
284,8	1,381
285,3	1,378
285,8	1,374
286,2	1,368
286,7	1,361
287,1	1,351
287,6	1,341
288,1	1,328
288,5	1,314
289	1,299
289,5	1,282
289,9	1,26
290,4	1,242
290,8	1,222
291,3	1,202
291,8	1,18
292,2	1,155
292,7	1,132
293,1	1,108
293,6	1,081
294,1	1,054
294,5	1,027
295	0,999
295,5	0,972
295,9	0,943
296,4	0,914
296,8	0,885
297,3	0,857
297,8	0,828
298,2	0,799
298,7	0,769
299,1	0,741
299,6	0,712
300,1	0,684
300,5	0,656
301	0,629
301,5	0,603
301,9	0,578
302,4	0,553
302,8	0,529
303,3	0,505
303,8	0,481
304,2	0,459
304,7	0,436
305,1	0,415
305,6	0,394
306,1	0,375
306,5	0,356
307	0,338
307,4	0,32
307,9	0,304
308,4	0,287
308,8	0,273
309,3	0,258
309,8	0,244
310,2	0,231
310,7	0,219
311,1	0,208
311,6	0,197
312,1	0,187
312,5	0,177
313	0,168
313,4	0,16
313,9	0,152
314,4	0,144
314,8	0,137
315,3	0,13
315,7	0,123
316,2	0,117
316,7	0,112
317,1	0,106
317,6	0,102
318	0,097
318,5	0,092
319	0,089
319,4	0,085
319,9	0,082
320,3	0,078
320,8	0,075
321,3	0,073
321,7	0,07
322,2	0,067
322,6	0,065
323,1	0,063
323,6	0,061
324	0,059
324,5	0,057
324,9	0,056
325,4	0,055
325,9	0,053
326,3	0,051
326,8	0,049
327,2	0,048
327,7	0,047
328,2	0,045
328,6	0,044
329,1	0,043
329,5	0,043
330	0,042
330,5	0,041
330,9	0,04
331,4	0,039
331,8	0,038
332,3	0,037
332,8	0,037
333,2	0,036
333,7	0,036
334,1	0,035
334,6	0,035
335,1	0,034
335,5	0,034
336	0,032
336,4	0,032
336,9	0,031
337,4	0,03
337,8	0,029
338,3	0,028
338,7	0,028
339,2	0,028
339,7	0,027
340,1	0,026
340,6	0,026
341	0,025
341,5	0,025
342	0,025
342,4	0,024
342,9	0,024
343,3	0,024
343,8	0,024
344,2	0,023
344,7	0,023
345,2	0,022
345,6	0,022
346,1	0,022
346,5	0,022
347	0,021
347,5	0,021
347,9	0,021
348,4	0,02
348,8	0,02
349,3	0,019
349,8	0,019
350,2	0,019
350,7	0,018
351,1	0,018
351,6	0,018
352	0,017
352,5	0,017
353	0,016
353,4	0,016
353,9	0,016
354,3	0,016
354,8	0,016
355,3	0,016
355,7	0,016
356,2	0,016
356,6	0,016
357,1	0,015
357,5	0,015
358	0,014
358,5	0,014
358,9	0,014
359,4	0,013
359,8	0,013
360,3	0,013
360,8	0,012
361,2	0,012
361,7	0,012
362,1	0,011
362,6	0,011
363	0,011
363,5	0,011
364	0,01
364,4	0,01
364,9	0,009
365,3	0,009
365,8	0,009
366,3	0,009
366,7	0,008
367,2	0,008
367,6	0,008
368,1	0,008
368,5	0,008
369	0,008
369,5	0,007
369,9	0,007
370,4	0,007
370,8	0,007
371,3	0,007
371,7	0,007
372,2	0,007
372,7	0,007
373,1	0,006
373,6	0,006
374	0,005
374,5	0,005
374,9	0,005
375,4	0,004
375,9	0,004
376,3	0,004
376,8	0,004
377,2	0,004
377,7	0,004
378,2	0,004
378,6	0,004
379,1	0,003
379,5	0,003
380	0,003
380,4	0,002
380,9	0,002
381,4	0,001
381,8	0,001
382,3	0,001
382,7	0,001
383,2	0,001
383,6	0,001
384,1	0,001
384,6	0,001
385	0,001
385,5	0,001
385,9	0,001
386,4	0
386,8	-0
387,3	-0,001
387,7	-0,001
388,2	-0,001
388,7	-0,001
389,1	-0,002
389,6	-0,002
390	-0,001
390,5	-0,001
390,9	-0,001
391,4	-0,001
391,9	-0,002
392,3	-0,001
392,8	-0,001
393,2	-0,001
393,7	-0,001
394,1	-0,001
394,6	-0,001
395,1	-0,002
395,5	-0,002
396	-0,003
396,4	-0,004
396,9	-0,003
397,3	-0,003
397,8	-0,003
398,2	-0,003
398,7	-0,004
399,2	-0,004
399,6	-0,003
400,1	-0,004
400,5	-0,004
401	-0,004
401,4	-0,004
401,9	-0,004
402,4	-0,003
402,8	-0,004
403,3	-0,004
403,7	-0,004
404,2	-0,005
404,6	-0,005
405,1	-0,005
405,5	-0,005
406	-0,005
406,5	-0,006
406,9	-0,006
407,4	-0,006
407,8	-0,006
408,3	-0,006
408,7	-0,007
409,2	-0,007
409,6	-0,007
410,1	-0,007
410,6	-0,007
411	-0,007
411,5	-0,007
411,9	-0,007
412,4	-0,007
412,8	-0,007
413,3	-0,007
413,7	-0,008
414,2	-0,008
414,7	-0,008
415,1	-0,008
415,6	-0,007
416	-0,008
416,5	-0,008
416,9	-0,008
417,4	-0,007
417,8	-0,007
418,3	-0,007
418,8	-0,007
419,2	-0,008
419,7	-0,008
420,1	-0,008
420,6	-0,009
421	-0,009
421,5	-0,009
421,9	-0,009
422,4	-0,009
422,8	-0,009
423,3	-0,009
423,8	-0,009
424,2	-0,009
424,7	-0,009
425,1	-0,009
425,6	-0,009
426	-0,009
426,5	-0,009
426,9	-0,009
427,4	-0,009
427,9	-0,009
428,3	-0,008
428,8	-0,008
429,2	-0,009
429,7	-0,009
430,1	-0,009
430,6	-0,01
431	-0,01
431,5	-0,011
431,9	-0,011
432,4	-0,01
432,8	-0,011
433,3	-0,011
433,8	-0,01
434,2	-0,01
434,7	-0,01
435,1	-0,01
435,6	-0,01
436	-0,01
436,5	-0,01
436,9	-0,01
437,4	-0,01
437,8	-0,01
438,3	-0,01
438,8	-0,01
439,2	-0,011
439,7	-0,011
440,1	-0,012
440,6	-0,012
441	-0,012
441,5	-0,012
441,9	-0,012
442,4	-0,012
442,8	-0,012
443,3	-0,012
443,7	-0,011
444,2	-0,012
444,7	-0,011
445,1	-0,011
445,6	-0,011
446	-0,011
446,5	-0,012
446,9	-0,012
447,4	-0,012
447,8	-0,012
448,3	-0,012
448,7	-0,012
449,2	-0,012
449,6	-0,012
450,1	-0,012
450,6	-0,012
451	-0,012
451,5	-0,012
451,9	-0,012
452,4	-0,012
452,8	-0,012
453,3	-0,012
453,7	-0,013
454,2	-0,013
454,6	-0,013
455,1	-0,013
455,5	-0,014
456	-0,014
456,4	-0,014
456,9	-0,014
457,3	-0,014
457,8	-0,014
458,3	-0,014
458,7	-0,014
459,2	-0,013
459,6	-0,013
460,1	-0,013
460,5	-0,013
461	-0,013
461,4	-0,014
461,9	-0,014
462,3	-0,014
462,8	-0,014
463,2	-0,014
463,7	-0,014
464,1	-0,014
464,6	-0,014
465	-0,014
465,5	-0,014
466	-0,014
466,4	-0,014
466,9	-0,014
467,3	-0,014
467,8	-0,014
468,2	-0,015
468,7	-0,015
469,1	-0,015
469,6	-0,015
470	-0,016
470,5	-0,015
470,9	-0,014
471,4	-0,014
471,8	-0,013
472,3	-0,013
472,7	-0,013
473,2	-0,013
473,6	-0,013
474,1	-0,013
474,5	-0,014
475	-0,014
475,4	-0,015
475,9	-0,015
476,4	-0,015
476,8	-0,015
477,3	-0,015
477,7	-0,015
478,2	-0,015
478,6	-0,015
479,1	-0,015
479,5	-0,015
480	-0,015
480,4	-0,015
480,9	-0,016
481,3	-0,016
481,8	-0,015
482,2	-0,016
482,7	-0,016
483,1	-0,016
483,6	-0,017
484	-0,017
484,5	-0,017
484,9	-0,017
485,4	-0,016
485,8	-0,016
486,3	-0,016
486,7	-0,015
487,2	-0,016
487,6	-0,015
488,1	-0,014
488,5	-0,015
489	-0,015
489,4	-0,015
489,9	-0,015
490,4	-0,016
490,8	-0,016
491,3	-0,017
491,7	-0,017
492,2	-0,017
492,6	-0,017
493,1	-0,017
493,5	-0,017
494	-0,016
494,4	-0,016
494,9	-0,016
495,3	-0,016
495,8	-0,017
496,2	-0,017
496,7	-0,017
497,1	-0,017
497,6	-0,017
498	-0,017
498,5	-0,016
498,9	-0,016
499,4	-0,016
499,8	-0,016
500,3	-0,017
500,7	-0,017
501,2	-0,017
501,6	-0,017
502,1	-0,017
502,5	-0,017
503	-0,017
503,4	-0,017
503,9	-0,017
504,3	-0,017
504,8	-0,017
505,2	-0,017
505,7	-0,018
506,1	-0,018
506,6	-0,018
507	-0,018
507,5	-0,018
507,9	-0,018
508,4	-0,017
508,8	-0,017
509,3	-0,017
509,7	-0,017
510,2	-0,017
510,6	-0,017
511,1	-0,017
511,5	-0,019
512	-0,018
512,4	-0,018
512,9	-0,018
513,3	-0,019
513,8	-0,019
514,2	-0,019
514,7	-0,019
515,1	-0,018
515,6	-0,019
516	-0,018
516,5	-0,018
516,9	-0,018
517,4	-0,018
517,8	-0,018
518,3	-0,019
518,7	-0,018
519,2	-0,019
519,6	-0,019
520,1	-0,019
520,5	-0,019
521	-0,019
521,4	-0,019
521,9	-0,02
522,3	-0,019
522,8	-0,02
523,2	-0,019
523,7	-0,019
524,1	-0,019
524,6	-0,019
525	-0,018
525,5	-0,019
525,9	-0,019
526,4	-0,019
526,8	-0,019
527,3	-0,019
527,7	-0,019
528,2	-0,019
528,6	-0,019
529,1	-0,018
529,5	-0,019
530	-0,019
530,4	-0,019
530,9	-0,019
531,3	-0,02
531,8	-0,019
532,2	-0,02
532,6	-0,02
533,1	-0,019
533,5	-0,019
534	-0,02
534,4	-0,02
534,9	-0,02
535,3	-0,02
535,8	-0,02
536,2	-0,021
536,7	-0,021
537,1	-0,021
537,6	-0,021
538	-0,021
538,5	-0,02
538,9	-0,02
539,4	-0,02
539,8	-0,02
540,3	-0,02
540,7	-0,02
541,2	-0,02
541,6	-0,02
542,1	-0,02
542,5	-0,02
543	-0,02
543,4	-0,019
543,9	-0,02
544,3	-0,02
544,8	-0,019
545,2	-0,019
545,7	-0,019
546,1	-0,019
546,5	-0,02
547	-0,019
547,4	-0,019
547,9	-0,019
548,3	-0,02
548,8	-0,02
549,2	-0,02
549,7	-0,02
550,1	-0,02
550,6	-0,021
551	-0,021
551,5	-0,021
551,9	-0,021
552,4	-0,021
552,8	-0,02
553,3	-0,02
553,7	-0,02
554,2	-0,02
554,6	-0,02
555,1	-0,02
555,5	-0,02
555,9	-0,02
556,4	-0,02
556,8	-0,02
557,3	-0,02
557,7	-0,02
558,2	-0,021
558,6	-0,021
559,1	-0,021
559,5	-0,021
560	-0,021
560,4	-0,021
560,9	-0,021
561,3	-0,021
561,8	-0,021
562,2	-0,021
562,7	-0,021
563,1	-0,021
563,6	-0,021
564	-0,022
564,4	-0,022
564,9	-0,022
565,3	-0,022
565,8	-0,022
566,2	-0,022
566,7	-0,022
567,1	-0,021
567,6	-0,021
568	-0,021
568,5	-0,022
568,9	-0,022
569,4	-0,022
569,8	-0,022
570,3	-0,022
570,7	-0,022
571,1	-0,022
571,6	-0,021
572	-0,021
572,5	-0,021
572,9	-0,021
573,4	-0,022
573,8	-0,022
574,3	-0,022
574,7	-0,022
575,2	-0,022
575,6	-0,022
576,1	-0,022
576,5	-0,022
576,9	-0,022
577,4	-0,022
577,8	-0,022
578,3	-0,022
578,7	-0,021
579,2	-0,021
579,6	-0,021
580,1	-0,021
580,5	-0,021
581	-0,021
581,4	-0,021
581,9	-0,021
582,3	-0,021
582,7	-0,021
583,2	-0,02
583,6	-0,021
584,1	-0,021
584,5	-0,022
585	-0,022
585,4	-0,022
585,9	-0,022
586,3	-0,022
586,8	-0,022
587,2	-0,022
587,6	-0,021
588,1	-0,021
588,5	-0,021
589	-0,021
589,4	-0,021
589,9	-0,021
590,3	-0,021
590,8	-0,021
591,2	-0,022
591,7	-0,022
592,1	-0,022
592,5	-0,022
593	-0,022
593,4	-0,022
593,9	-0,022
594,3	-0,022
594,8	-0,021
595,2	-0,021
595,7	-0,022
596,1	-0,022
596,6	-0,022
597	-0,022
597,4	-0,022
597,9	-0,022
598,3	-0,022
598,8	-0,022
599,2	-0,022
599,7	-0,021
600,1	-0,021
600,6	-0,022
601	-0,021
601,4	-0,022
601,9	-0,022
602,3	-0,022
602,8	-0,022
603,2	-0,022
603,7	-0,021
604,1	-0,022
604,6	-0,022
605	-0,021
605,4	-0,022
605,9	-0,022
606,3	-0,022
606,8	-0,022
607,2	-0,022
607,7	-0,022
608,1	-0,022
608,6	-0,022
609	-0,022
609,4	-0,022
609,9	-0,023
610,3	-0,023
610,8	-0,023
611,2	-0,023
611,7	-0,023
612,1	-0,023
612,6	-0,024
613	-0,024
613,4	-0,023
613,9	-0,023
614,3	-0,023
614,8	-0,023
615,2	-0,023
615,7	-0,023
616,1	-0,023
616,6	-0,023
617	-0,023
617,4	-0,023
617,9	-0,022
618,3	-0,023
618,8	-0,023
619,2	-0,023
619,7	-0,022
620,1	-0,023
620,5	-0,023
621	-0,023
621,4	-0,023
621,9	-0,023
622,3	-0,023
622,8	-0,024
623,2	-0,024
623,6	-0,023
624,1	-0,023
624,5	-0,023
625	-0,023
625,4	-0,023
625,9	-0,023
626,3	-0,022
626,8	-0,022
627,2	-0,022
627,6	-0,021
628,1	-0,021
628,5	-0,021
629	-0,021
629,4	-0,022
629,9	-0,022
630,3	-0,023
630,7	-0,023
631,2	-0,022
631,6	-0,022
632,1	-0,022
632,5	-0,022
633	-0,022
633,4	-0,022
633,8	-0,022
634,3	-0,022
634,7	-0,023
635,2	-0,023
635,6	-0,023
636,1	-0,023
636,5	-0,023
636,9	-0,023
637,4	-0,023
637,8	-0,023
638,3	-0,023
638,7	-0,023
639,2	-0,023
639,6	-0,023
640	-0,023
640,5	-0,023
640,9	-0,023
641,4	-0,023
641,8	-0,023
642,2	-0,023
642,7	-0,024
643,1	-0,024
643,6	-0,024
644	-0,024
644,5	-0,023
644,9	-0,023
645,3	-0,023
645,8	-0,023
646,2	-0,023
646,7	-0,023
647,1	-0,023
647,6	-0,023
648	-0,023
648,4	-0,023
648,9	-0,023
649,3	-0,023
649,8	-0,023
650,2	-0,023
650,6	-0,023
651,1	-0,023
651,5	-0,023
652	-0,023
652,4	-0,023
652,9	-0,023
653,3	-0,023
653,7	-0,024
654,2	-0,016
654,6	-0,011
655,1	-0,008
655,5	-0,008
655,9	-0,007
656,4	-0,007
656,8	-0,004
657,3	-0,006
657,7	-0,009
658,2	-0,014
658,6	-0,018
659	-0,02
659,5	-0,021
659,9	-0,021
660,4	-0,022
660,8	-0,022
661,2	-0,022
661,7	-0,023
662,1	-0,023
662,6	-0,023
663	-0,023
663,4	-0,023
663,9	-0,023
664,3	-0,023
664,8	-0,023
665,2	-0,023
665,6	-0,023
666,1	-0,023
666,5	-0,023
667	-0,023
667,4	-0,023
667,9	-0,023
668,3	-0,023
668,7	-0,023
669,2	-0,023
669,6	-0,023
670,1	-0,023
670,5	-0,023
670,9	-0,023
671,4	-0,023
671,8	-0,023
672,3	-0,023
672,7	-0,023
673,1	-0,023
673,6	-0,023
674	-0,023
674,5	-0,022
674,9	-0,022
675,3	-0,022
675,8	-0,022
676,2	-0,023
676,7	-0,023
677,1	-0,023
677,5	-0,023
678	-0,023
678,4	-0,024
678,9	-0,024
679,3	-0,024
679,7	-0,023
680,2	-0,023
680,6	-0,023
681,1	-0,023
681,5	-0,023
681,9	-0,023
682,4	-0,023
682,8	-0,024
683,3	-0,024
683,7	-0,024
684,1	-0,024
684,6	-0,024
685	-0,024
685,5	-0,023
685,9	-0,024
686,3	-0,024
686,8	-0,023
687,2	-0,023
687,7	-0,023
688,1	-0,023
688,5	-0,023
689	-0,023
689,4	-0,023
689,9	-0,023
690,3	-0,023
690,7	-0,023
691,2	-0,023
691,6	-0,023
692	-0,023
692,5	-0,023
692,9	-0,023
693,4	-0,024
693,8	-0,024
694,2	-0,023
694,7	-0,023
695,1	-0,023
695,6	-0,023
696	-0,023
696,4	-0,023
696,9	-0,023
697,3	-0,023
697,8	-0,023
698,2	-0,023
698,6	-0,023
699,1	-0,023
699,5	-0,023
699,9	-0,023
700,4	-0,023
700,8	-0,023
701,3	-0,023
701,7	-0,023
702,1	-0,023
702,6	-0,023
703	-0,023
703,5	-0,023
703,9	-0,023
704,3	-0,023
704,8	-0,023
705,2	-0,023
705,6	-0,023
706,1	-0,023
706,5	-0,024
707	-0,024
707,4	-0,024
707,8	-0,024
708,3	-0,024
708,7	-0,024
709,2	-0,024
709,6	-0,025
710	-0,024
710,5	-0,024
710,9	-0,024
711,3	-0,024
711,8	-0,023
712,2	-0,024
712,7	-0,024
713,1	-0,024
713,5	-0,024
714	-0,024
714,4	-0,024
714,8	-0,024
715,3	-0,024
715,7	-0,023
716,2	-0,023
716,6	-0,023
717	-0,023
717,5	-0,023
717,9	-0,023
718,3	-0,023
718,8	-0,023
719,2	-0,023
719,7	-0,023
720,1	-0,023
720,5	-0,023
721	-0,023
721,4	-0,024
721,8	-0,024
722,3	-0,024
722,7	-0,024
723,2	-0,024
723,6	-0,024
724	-0,024
724,5	-0,023
724,9	-0,023
725,3	-0,023
725,8	-0,023
726,2	-0,023
726,7	-0,023
727,1	-0,023
727,5	-0,023
728	-0,023
728,4	-0,023
728,8	-0,023
729,3	-0,024
729,7	-0,024
730,1	-0,024
730,6	-0,024
731	-0,024
731,5	-0,024
731,9	-0,024
732,3	-0,024
732,8	-0,024
733,2	-0,024
733,6	-0,024
734,1	-0,024
734,5	-0,024
734,9	-0,024
735,4	-0,023
735,8	-0,023
736,3	-0,023
736,7	-0,023
737,1	-0,022
737,6	-0,022
738	-0,022
738,4	-0,022
738,9	-0,022
739,3	-0,022
739,7	-0,022
740,2	-0,022
740,6	-0,022
741,1	-0,022
741,5	-0,022
741,9	-0,022
742,4	-0,023
742,8	-0,023
743,2	-0,024
743,7	-0,024
744,1	-0,024
744,5	-0,024
745	-0,024
745,4	-0,024
745,8	-0,023
746,3	-0,023
746,7	-0,023
747,2	-0,023
747,6	-0,022
748	-0,023
748,5	-0,023
748,9	-0,023
749,3	-0,023
749,8	-0,024
750,2	-0,023
750,6	-0,023
751,1	-0,023
751,5	-0,023
751,9	-0,023
752,4	-0,023
752,8	-0,023
753,3	-0,023
753,7	-0,023
754,1	-0,023
754,6	-0,024
755	-0,024
755,4	-0,024
755,9	-0,024
756,3	-0,024
756,7	-0,024
757,2	-0,024
757,6	-0,023
758	-0,023
758,5	-0,023
758,9	-0,023
759,3	-0,023
759,8	-0,023
760,2	-0,023
760,6	-0,023
761,1	-0,023
761,5	-0,023
761,9	-0,023
762,4	-0,023
762,8	-0,023
763,3	-0,024
763,7	-0,024
764,1	-0,024
764,6	-0,024
765	-0,023
765,4	-0,023
765,9	-0,023
766,3	-0,023
766,7	-0,022
767,2	-0,023
767,6	-0,023
768	-0,023
768,5	-0,023
768,9	-0,024
769,3	-0,024
769,8	-0,023
770,2	-0,023
770,6	-0,023
771,1	-0,023
771,5	-0,023
771,9	-0,023
772,4	-0,023
772,8	-0,022
773,2	-0,023
773,7	-0,023
774,1	-0,023
774,5	-0,023
775	-0,023
775,4	-0,023
775,8	-0,023
776,3	-0,023
776,7	-0,024
777,1	-0,023
777,6	-0,023
778	-0,023
778,4	-0,023
778,9	-0,023
779,3	-0,023
779,7	-0,023
780,2	-0,024
780,6	-0,023
781	-0,023
781,5	-0,024
781,9	-0,024
782,3	-0,024
782,8	-0,024
783,2	-0,024
783,6	-0,024
784,1	-0,024
784,5	-0,024
784,9	-0,024
785,4	-0,024
785,8	-0,024
786,2	-0,024
786,7	-0,024
787,1	-0,024
787,5	-0,024
788	-0,024
788,4	-0,023
788,8	-0,023
789,3	-0,023
789,7	-0,023
790,1	-0,023
790,6	-0,023
791	-0,023
791,4	-0,024
791,9	-0,023
792,3	-0,023
792,7	-0,024
793,2	-0,023
793,6	-0,023
794	-0,023
794,5	-0,023
794,9	-0,023
795,3	-0,022
795,8	-0,022
796,2	-0,022
796,6	-0,022
797,1	-0,023
797,5	-0,023
797,9	-0,023
798,4	-0,023
798,8	-0,023
799,2	-0,023
799,7	-0,023
800,1	-0,023
800,5	-0,023
801	-0,023
801,4	-0,023
801,8	-0,023
802,2	-0,023
802,7	-0,023
803,1	-0,023
803,5	-0,023
804	-0,023
804,4	-0,023
804,8	-0,023
805,3	-0,023
805,7	-0,023
806,1	-0,023
806,6	-0,023
807	-0,023
807,4	-0,023
807,9	-0,023
808,3	-0,023
808,7	-0,024
809,2	-0,024
809,6	-0,024
810	-0,024
810,4	-0,023
810,9	-0,023
811,3	-0,023
811,7	-0,023
812,2	-0,023
812,6	-0,022
813	-0,023
813,5	-0,023
813,9	-0,023
814,3	-0,023
814,8	-0,023
815,2	-0,022
815,6	-0,022
816,1	-0,022
816,5	-0,022
816,9	-0,022
817,3	-0,022
817,8	-0,023
818,2	-0,023
818,6	-0,024
819,1	-0,024
819,5	-0,024
819,9	-0,024
820,4	-0,024
820,8	-0,024
821,2	-0,024
821,7	-0,023
822,1	-0,023
822,5	-0,023
822,9	-0,023
823,4	-0,023
823,8	-0,023
824,2	-0,023
824,7	-0,023
825,1	-0,024
825,5	-0,024
826	-0,024
826,4	-0,024
826,8	-0,024
827,3	-0,024
827,7	-0,024
828,1	-0,023
828,5	-0,023
829	-0,023
829,4	-0,023
829,8	-0,023
830,3	-0,023
830,7	-0,023
831,1	-0,023
831,6	-0,023
832	-0,023
832,4	-0,023
832,8	-0,023
833,3	-0,023
833,7	-0,023
834,1	-0,024
834,6	-0,023
835	-0,023
835,4	-0,023
835,8	-0,023
836,3	-0,023
836,7	-0,023
837,1	-0,023
837,6	-0,023
838	-0,023
838,4	-0,023
838,9	-0,023
839,3	-0,023
839,7	-0,023
840,1	-0,022
840,6	-0,023
841	-0,023
841,4	-0,024
841,9	-0,024
842,3	-0,024
842,7	-0,024
843,1	-0,025
843,6	-0,024
844	-0,024
844,4	-0,023
844,9	-0,023
845,3	-0,023
845,7	-0,023
846,2	-0,022
846,6	-0,022
847	-0,023
847,4	-0,023
847,9	-0,023
848,3	-0,023
848,7	-0,023
849,2	-0,024
849,6	-0,024
850	-0,024
850,4	-0,024
850,9	-0,024
851,3	-0,024
851,7	-0,024
852,2	-0,024
852,6	-0,024
853	-0,024
853,4	-0,023
853,9	-0,023
854,3	-0,023
854,7	-0,023
855,2	-0,023
855,6	-0,024
856	-0,024
856,4	-0,024
856,9	-0,024
857,3	-0,024
857,7	-0,024
858,2	-0,024
858,6	-0,023
859	-0,023
859,4	-0,023
859,9	-0,023
860,3	-0,024
860,7	-0,024
861,1	-0,024
861,6	-0,024
862	-0,024
862,4	-0,023
862,9	-0,024
863,3	-0,024
863,7	-0,023
864,1	-0,023
864,6	-0,023
865	-0,023
865,4	-0,023
865,9	-0,023
866,3	-0,023
866,7	-0,024
867,1	-0,023
867,6	-0,023
868	-0,023
868,4	-0,023
868,8	-0,023
869,3	-0,023
869,7	-0,023
870,1	-0,023
870,6	-0,022
871	-0,022
871,4	-0,022
871,8	-0,022
872,3	-0,022
872,7	-0,022
873,1	-0,023
873,5	-0,024
874	-0,024
874,4	-0,024
874,8	-0,024
875,3	-0,024
875,7	-0,024
876,1	-0,024
876,5	-0,024
877	-0,023
877,4	-0,023
877,8	-0,023
878,2	-0,023
878,7	-0,023
879,1	-0,023
879,5	-0,023
879,9	-0,023
880,4	-0,023
880,8	-0,023
881,2	-0,023
881,7	-0,023
882,1	-0,023
882,5	-0,023
882,9	-0,023
883,4	-0,024
883,8	-0,024
884,2	-0,024
884,6	-0,023
885,1	-0,023
885,5	-0,023
885,9	-0,023
886,3	-0,023
886,8	-0,023
887,2	-0,024
887,6	-0,024
888	-0,024
888,5	-0,024
888,9	-0,023
889,3	-0,023
889,8	-0,023
890,2	-0,023
890,6	-0,023
891	-0,023
891,5	-0,024
891,9	-0,024
892,3	-0,024
892,7	-0,024
893,2	-0,024
893,6	-0,024
894	-0,024
894,4	-0,024
894,9	-0,025
895,3	-0,025
895,7	-0,025
896,1	-0,025
896,6	-0,025
897	-0,024
897,4	-0,024
897,8	-0,024
898,3	-0,024
898,7	-0,024
899,1	-0,024
899,5	-0,024
900	-0,024
900,4	-0,024
900,8	-0,024
901,2	-0,023
901,7	-0,023
902,1	-0,023
902,5	-0,023
902,9	-0,023
903,4	-0,023
903,8	-0,023
904,2	-0,023
904,6	-0,022
905,1	-0,022
905,5	-0,023
905,9	-0,023
906,3	-0,023
906,8	-0,023
907,2	-0,023
907,6	-0,024
908	-0,024
908,5	-0,024
908,9	-0,024
909,3	-0,023
909,7	-0,023
910,2	-0,023
910,6	-0,023
911	-0,023
911,4	-0,023
911,9	-0,023
912,3	-0,023
912,7	-0,023
913,1	-0,023
913,6	-0,023
914	-0,024
914,4	-0,023
914,8	-0,024
915,3	-0,024
915,7	-0,025
916,1	-0,025
916,5	-0,025
916,9	-0,025
917,4	-0,025
917,8	-0,025
918,2	-0,025
918,6	-0,024
919,1	-0,024
919,5	-0,023
919,9	-0,023
920,3	-0,023
920,8	-0,023
921,2	-0,024
921,6	-0,024
922	-0,024
922,5	-0,025
922,9	-0,025
923,3	-0,025
923,7	-0,025
924,2	-0,024
924,6	-0,024
925	-0,023
925,4	-0,024
925,8	-0,023
926,3	-0,023
926,7	-0,023
927,1	-0,023
927,5	-0,023
928	-0,023
928,4	-0,022
928,8	-0,022
929,2	-0,022
929,7	-0,022
930,1	-0,022
930,5	-0,022
930,9	-0,022
931,3	-0,022
931,8	-0,022
932,2	-0,023
932,6	-0,023
933	-0,023
933,5	-0,023
933,9	-0,023
934,3	-0,023
934,7	-0,023
935,2	-0,023
935,6	-0,022
936	-0,022
936,4	-0,022
936,8	-0,023
937,3	-0,022
937,7	-0,022
938,1	-0,023
938,5	-0,023
939	-0,023
939,4	-0,024
939,8	-0,023
940,2	-0,024
940,6	-0,024
941,1	-0,024
941,5	-0,024
941,9	-0,024
942,3	-0,024
942,8	-0,024
943,2	-0,024
943,6	-0,024
944	-0,024
944,4	-0,024
944,9	-0,024
945,3	-0,024
945,7	-0,024
946,1	-0,024
946,6	-0,024
947	-0,024
947,4	-0,024
947,8	-0,024
948,2	-0,024
948,7	-0,025
949,1	-0,025
949,5	-0,025
949,9	-0,025
950,3	-0,025
950,8	-0,025
951,2	-0,024
951,6	-0,024
952	-0,024
952,5	-0,024
952,9	-0,024
953,3	-0,024
953,7	-0,024
954,1	-0,024
954,6	-0,023
955	-0,023
955,4	-0,023
955,8	-0,023
956,2	-0,023
956,7	-0,023
957,1	-0,024
957,5	-0,024
957,9	-0,024
958,3	-0,024
958,8	-0,023
959,2	-0,023
959,6	-0,023
960	-0,023
960,5	-0,022
960,9	-0,022
961,3	-0,022
961,7	-0,022
962,1	-0,022
962,6	-0,022
963	-0,022
963,4	-0,023
963,8	-0,023
964,2	-0,024
964,7	-0,024
965,1	-0,024
965,5	-0,024
965,9	-0,023
966,3	-0,023
966,8	-0,023
967,2	-0,023
967,6	-0,023
968	-0,023
968,4	-0,024
968,9	-0,024
969,3	-0,025
969,7	-0,025
970,1	-0,024
970,5	-0,024
971	-0,024
971,4	-0,023
971,8	-0,024
972,2	-0,024
972,6	-0,024
973,1	-0,024
973,5	-0,024
973,9	-0,024
974,3	-0,024
974,7	-0,024
975,2	-0,024
975,6	-0,024
976	-0,024
976,4	-0,024
976,8	-0,025
977,3	-0,025
977,7	-0,024
978,1	-0,024
978,5	-0,024
978,9	-0,024
979,4	-0,024
979,8	-0,023
980,2	-0,023
980,6	-0,023
981	-0,024
981,5	-0,024
981,9	-0,023
982,3	-0,023
982,7	-0,023
983,1	-0,023
983,6	-0,023
984	-0,023
984,4	-0,023
984,8	-0,024
985,2	-0,024
985,6	-0,024
986,1	-0,023
986,5	-0,023
986,9	-0,023
987,3	-0,023
987,7	-0,023
988,2	-0,023
988,6	-0,023
989	-0,023
989,4	-0,024
989,8	-0,024
990,3	-0,024
990,7	-0,024
991,1	-0,024
991,5	-0,024
991,9	-0,024
992,3	-0,024
992,8	-0,024
993,2	-0,024
993,6	-0,024
994	-0,024
994,4	-0,024
994,9	-0,024
995,3	-0,024
995,7	-0,024
996,1	-0,024
996,5	-0,023
996,9	-0,024
997,4	-0,024
997,8	-0,024
998,2	-0,024
998,6	-0,023
999	-0,024
999,5	-0,024
999,9	-0,024
1000,3	-0,023
1000,7	-0,023
1001,1	-0,024
1001,5	-0,024
1002	-0,024
1002,4	-0,024
1002,8	-0,024
1003,2	-0,024
1003,6	-0,025
1004	-0,025
1004,5	-0,024
1004,9	-0,024
1005,3	-0,025
1005,7	-0,024
1006,1	-0,024
1006,6	-0,024
1007	-0,024
1007,4	-0,024
1007,8	-0,024
1008,2	-0,024
1008,6	-0,023
1009,1	-0,023
1009,5	-0,022
1009,9	-0,022
1010,3	-0,022
1010,7	-0,022
1011,1	-0,022
1011,6	-0,022
1012	-0,022
1012,4	-0,023
1012,8	-0,023
1013,2	-0,024
1013,6	-0,024
1014,1	-0,024
1014,5	-0,025
1014,9	-0,025
1015,3	-0,025
1015,7	-0,024
1016,1	-0,024
1016,6	-0,025
1017	-0,024
1017,4	-0,024
1017,8	-0,024
1018,2	-0,024
1018,6	-0,025
1019,1	-0,024
1019,5	-0,024
1019,9	-0,024
1020,3	-0,023
1020,7	-0,023
1021,1	-0,023
1021,6	-0,023
1022	-0,023
1022,4	-0,023
1022,8	-0,023
1023,2	-0,023
1023,6	-0,023
1024,1	-0,023
1024,5	-0,023
1024,9	-0,023
1025,3	-0,022
1025,7	-0,023
1026,1	-0,023
1026,6	-0,022
1027	-0,023
1027,4	-0,023
1027,8	-0,023
1028,2	-0,024
1028,6	-0,024
1029	-0,024
1029,5	-0,024
1029,9	-0,024
1030,3	-0,023
1030,7	-0,023
1031,1	-0,023
1031,5	-0,023
1032	-0,023
1032,4	-0,023
1032,8	-0,023
1033,2	-0,024
1033,6	-0,024
1034	-0,025
1034,4	-0,025
1034,9	-0,025
1035,3	-0,025
1035,7	-0,025
1036,1	-0,025
1036,5	-0,026
1036,9	-0,025
1037,4	-0,024
1037,8	-0,025
1038,2	-0,026
1038,6	-0,026
1039	-0,026
1039,4	-0,025
1039,8	-0,026
1040,3	-0,026
1040,7	-0,026
1041,1	-0,025
1041,5	-0,024
1041,9	-0,024
1042,3	-0,025
1042,7	-0,025
1043,2	-0,024
1043,6	-0,023
1044	-0,024
1044,4	-0,024
1044,8	-0,023
1045,2	-0,023
1045,6	-0,023
1046,1	-0,023
1046,5	-0,023
1046,9	-0,023
1047,3	-0,024
1047,7	-0,023
1048,1	-0,024
1048,5	-0,024
1049	-0,024
1049,4	-0,025
1049,8	-0,024
1050,2	-0,024
1050,6	-0,024
1051	-0,022
1051,4	-0,022
1051,9	-0,022
1052,3	-0,022
1052,7	-0,023
1053,1	-0,022
1053,5	-0,022
1053,9	-0,023
1054,3	-0,023
1054,8	-0,022
1055,2	-0,022
1055,6	-0,023
1056	-0,022
1056,4	-0,023
1056,8	-0,023
1057,2	-0,024
1057,6	-0,024
1058,1	-0,025
1058,5	-0,024
1058,9	-0,024
1059,3	-0,024
1059,7	-0,024
1060,1	-0,025
1060,5	-0,025
1061	-0,024
1061,4	-0,024
1061,8	-0,025
1062,2	-0,025
1062,6	-0,024
1063	-0,024
1063,4	-0,024
1063,8	-0,024
1064,3	-0,024
1064,7	-0,024
1065,1	-0,024
1065,5	-0,023
1065,9	-0,023
1066,3	-0,024
1066,7	-0,024
1067,1	-0,024
1067,6	-0,023
1068	-0,023
1068,4	-0,024
1068,8	-0,024
1069,2	-0,023
1069,6	-0,024
1070	-0,024
1070,4	-0,025
1070,9	-0,026
1071,3	-0,025
1071,7	-0,026
1072,1	-0,026
1072,5	-0,027
1072,9	-0,026
1073,3	-0,026
1073,7	-0,025
1074,2	-0,025
1074,6	-0,024
1075	-0,023
1075,4	-0,022
1075,8	-0,022
1076,2	-0,023
1076,6	-0,023
1077	-0,023
1077,5	-0,024
1077,9	-0,025
1078,3	-0,026
1078,7	-0,026
1079,1	-0,026
1079,5	-0,027
1079,9	-0,028
1080,3	-0,029
1080,7	-0,028
1081,2	-0,028
1081,6	-0,029
1082	-0,029
1082,4	-0,03
1082,8	-0,028
1083,2	-0,027
1083,6	-0,027
1084	-0,028
1084,5	-0,028
1084,9	-0,027
1085,3	-0,025
1085,7	-0,026
1086,1	-0,026
1086,5	-0,024
1086,9	-0,024
1087,3	-0,024
1087,7	-0,025
1088,2	-0,026
1088,6	-0,024
1089	-0,023
1089,4	-0,026
1089,8	-0,026
1090,2	-0,024
1090,6	-0,021
1091	-0,02
1091,4	-0,023
1091,9	-0,025
1092,3	-0,026
1092,7	-0,024
1093,1	-0,027
1093,5	-0,031
1093,9	-0,035
1094,3	-0,039
1094,7	-0,033
1095,1	-0,035
1095,5	-0,036
1096	-0,038
1096,4	-0,038
1096,8	-0,035
1097,2	-0,027
1097,6	-0,031
1098	-0,031
1098,4	-0,03
1098,8	-0,023
1099,2	-0,019
1099,6	-0,022
1100,1	-0,032
1100,5	-0,034
1100,9	-0,029
1101,3	-0,038
1101,7	-0,041
1102,1	-0,053
1102,5	-0,057
1102,9	-0,054
1103,3	-0,054
1103,7	-0,057
1104,2	-0,065
1104,6	-0,068
1105	-0,064
1105,4	-0,058
1105,8	-0,062
1106,2	-0,062
1106,6	-0,069
1107	-0,049
1107,4	-0,06
1107,8	-0,061
1108,3	-0
