Data from Absorbance_170.txt Node
Date: Fri Nov 13 20:13:10 MSK 2020
User: vat
Spectrometer: MAYP114033
Trigger mode: 0
Integration Time (sec): 8,000000E-3
Scans to average: 10
Electric dark correction enabled: true
Nonlinearity correction enabled: false
Boxcar width: 3
XAxis mode: Wavelengths
Number of Pixels in Spectrum: 2068
>>>>>Begin Spectral Data<<<<<
199,4	-0
199,9	0,276
200,4	0,158
200,8	0,098
201,3	0,061
201,8	0,081
202,2	0,078
202,7	0,077
203,2	0,058
203,6	0,062
204,1	0,063
204,6	0,062
205	0,054
205,5	0,044
206	0,046
206,4	0,055
206,9	0,037
207,4	0,045
207,8	0,046
208,3	0,043
208,8	0,045
209,2	0,043
209,7	0,012
210,2	0,011
210,6	0,003
211,1	0,014
211,5	0,009
212	0,008
212,5	0,001
212,9	0,031
213,4	0,046
213,9	0,049
214,3	0,051
214,8	0,063
215,3	0,074
215,7	0,078
216,2	0,074
216,7	0,054
217,1	0,053
217,6	0,037
218,1	0,016
218,5	0,001
219	0
219,5	0,01
219,9	0,024
220,4	0,026
220,9	0,037
221,3	0,048
221,8	0,044
222,3	0,043
222,7	0,052
223,2	0,07
223,6	0,069
224,1	0,082
224,6	0,096
225	0,124
225,5	0,13
226	0,12
226,4	0,105
226,9	0,108
227,4	0,093
227,8	0,085
228,3	0,077
228,8	0,094
229,2	0,091
229,7	0,095
230,2	0,084
230,6	0,066
231,1	0,072
231,5	0,061
232	0,037
232,5	0,045
232,9	0,053
233,4	0,066
233,9	0,074
234,3	0,066
234,8	0,079
235,3	0,079
235,7	0,071
236,2	0,07
236,7	0,07
237,1	0,085
237,6	0,086
238,1	0,081
238,5	0,084
239	0,091
239,4	0,079
239,9	0,08
240,4	0,078
240,8	0,082
241,3	0,091
241,8	0,105
242,2	0,105
242,7	0,111
243,2	0,106
243,6	0,109
244,1	0,116
244,6	0,113
245	0,105
245,5	0,105
245,9	0,115
246,4	0,12
246,9	0,12
247,3	0,118
247,8	0,12
248,3	0,128
248,7	0,127
249,2	0,135
249,7	0,145
250,1	0,145
250,6	0,144
251	0,142
251,5	0,144
252	0,144
252,4	0,142
252,9	0,139
253,4	0,142
253,8	0,144
254,3	0,148
254,8	0,15
255,2	0,153
255,7	0,156
256,1	0,159
256,6	0,162
257,1	0,165
257,5	0,166
258	0,17
258,5	0,173
258,9	0,176
259,4	0,181
259,9	0,184
260,3	0,187
260,8	0,192
261,2	0,197
261,7	0,202
262,2	0,207
262,6	0,211
263,1	0,216
263,6	0,221
264	0,226
264,5	0,23
264,9	0,235
265,4	0,239
265,9	0,243
266,3	0,248
266,8	0,253
267,3	0,257
267,7	0,262
268,2	0,267
268,7	0,272
269,1	0,278
269,6	0,283
270	0,289
270,5	0,294
271	0,298
271,4	0,303
271,9	0,307
272,4	0,311
272,8	0,316
273,3	0,319
273,7	0,324
274,2	0,328
274,7	0,333
275,1	0,337
275,6	0,341
276,1	0,344
276,5	0,348
277	0,351
277,4	0,355
277,9	0,357
278,4	0,36
278,8	0,363
279,3	0,364
279,8	0,366
280,2	0,368
280,7	0,369
281,1	0,37
281,6	0,37
282,1	0,371
282,5	0,371
283	0,371
283,4	0,371
283,9	0,37
284,4	0,37
284,8	0,368
285,3	0,366
285,8	0,364
286,2	0,361
286,7	0,359
287,1	0,356
287,6	0,352
288,1	0,349
288,5	0,345
289	0,342
289,5	0,338
289,9	0,333
290,4	0,329
290,8	0,324
291,3	0,319
291,8	0,313
292,2	0,306
292,7	0,3
293,1	0,293
293,6	0,286
294,1	0,279
294,5	0,273
295	0,266
295,5	0,259
295,9	0,252
296,4	0,245
296,8	0,238
297,3	0,23
297,8	0,223
298,2	0,216
298,7	0,208
299,1	0,201
299,6	0,194
300,1	0,187
300,5	0,181
301	0,174
301,5	0,168
301,9	0,161
302,4	0,155
302,8	0,149
303,3	0,144
303,8	0,138
304,2	0,132
304,7	0,126
305,1	0,121
305,6	0,116
306,1	0,112
306,5	0,106
307	0,102
307,4	0,098
307,9	0,095
308,4	0,091
308,8	0,087
309,3	0,084
309,8	0,08
310,2	0,077
310,7	0,075
311,1	0,071
311,6	0,068
312,1	0,066
312,5	0,063
313	0,061
313,4	0,059
313,9	0,056
314,4	0,054
314,8	0,052
315,3	0,05
315,7	0,049
316,2	0,047
316,7	0,046
317,1	0,045
317,6	0,044
318	0,043
318,5	0,042
319	0,041
319,4	0,04
319,9	0,039
320,3	0,038
320,8	0,036
321,3	0,035
321,7	0,034
322,2	0,034
322,6	0,033
323,1	0,033
323,6	0,033
324	0,033
324,5	0,032
324,9	0,032
325,4	0,032
325,9	0,031
326,3	0,031
326,8	0,031
327,2	0,03
327,7	0,03
328,2	0,03
328,6	0,029
329,1	0,029
329,5	0,029
330	0,029
330,5	0,028
330,9	0,029
331,4	0,028
331,8	0,028
332,3	0,028
332,8	0,027
333,2	0,027
333,7	0,027
334,1	0,027
334,6	0,026
335,1	0,027
335,5	0,026
336	0,027
336,4	0,027
336,9	0,026
337,4	0,026
337,8	0,026
338,3	0,026
338,7	0,026
339,2	0,026
339,7	0,026
340,1	0,026
340,6	0,025
341	0,025
341,5	0,024
342	0,024
342,4	0,024
342,9	0,024
343,3	0,024
343,8	0,024
344,2	0,024
344,7	0,024
345,2	0,024
345,6	0,024
346,1	0,024
346,5	0,024
347	0,024
347,5	0,024
347,9	0,025
348,4	0,025
348,8	0,025
349,3	0,024
349,8	0,024
350,2	0,024
350,7	0,024
351,1	0,023
351,6	0,023
352	0,023
352,5	0,023
353	0,023
353,4	0,023
353,9	0,023
354,3	0,023
354,8	0,023
355,3	0,023
355,7	0,023
356,2	0,022
356,6	0,022
357,1	0,022
357,5	0,022
358	0,022
358,5	0,022
358,9	0,022
359,4	0,022
359,8	0,022
360,3	0,022
360,8	0,022
361,2	0,022
361,7	0,022
362,1	0,022
362,6	0,022
363	0,022
363,5	0,022
364	0,022
364,4	0,022
364,9	0,022
365,3	0,023
365,8	0,022
366,3	0,022
366,7	0,021
367,2	0,021
367,6	0,021
368,1	0,02
368,5	0,02
369	0,02
369,5	0,019
369,9	0,02
370,4	0,02
370,8	0,02
371,3	0,02
371,7	0,021
372,2	0,021
372,7	0,021
373,1	0,021
373,6	0,021
374	0,021
374,5	0,021
374,9	0,021
375,4	0,021
375,9	0,021
376,3	0,021
376,8	0,02
377,2	0,02
377,7	0,019
378,2	0,019
378,6	0,019
379,1	0,019
379,5	0,018
380	0,018
380,4	0,018
380,9	0,018
381,4	0,018
381,8	0,018
382,3	0,018
382,7	0,018
383,2	0,019
383,6	0,018
384,1	0,019
384,6	0,018
385	0,019
385,5	0,018
385,9	0,018
386,4	0,018
386,8	0,019
387,3	0,018
387,7	0,019
388,2	0,019
388,7	0,019
389,1	0,019
389,6	0,019
390	0,018
390,5	0,018
390,9	0,018
391,4	0,018
391,9	0,018
392,3	0,018
392,8	0,018
393,2	0,018
393,7	0,018
394,1	0,017
394,6	0,017
395,1	0,017
395,5	0,017
396	0,017
396,4	0,017
396,9	0,017
397,3	0,016
397,8	0,017
398,2	0,016
398,7	0,017
399,2	0,017
399,6	0,017
400,1	0,017
400,5	0,017
401	0,017
401,4	0,017
401,9	0,016
402,4	0,016
402,8	0,016
403,3	0,016
403,7	0,016
404,2	0,016
404,6	0,016
405,1	0,016
405,5	0,015
406	0,015
406,5	0,015
406,9	0,015
407,4	0,015
407,8	0,015
408,3	0,015
408,7	0,016
409,2	0,016
409,6	0,016
410,1	0,015
410,6	0,015
411	0,015
411,5	0,015
411,9	0,015
412,4	0,015
412,8	0,015
413,3	0,015
413,7	0,015
414,2	0,015
414,7	0,016
415,1	0,016
415,6	0,016
416	0,016
416,5	0,017
416,9	0,016
417,4	0,016
417,8	0,016
418,3	0,016
418,8	0,016
419,2	0,016
419,7	0,015
420,1	0,016
420,6	0,016
421	0,016
421,5	0,016
421,9	0,016
422,4	0,016
422,8	0,016
423,3	0,016
423,8	0,016
424,2	0,015
424,7	0,015
425,1	0,015
425,6	0,015
426	0,015
426,5	0,015
426,9	0,014
427,4	0,015
427,9	0,015
428,3	0,014
428,8	0,014
429,2	0,014
429,7	0,014
430,1	0,014
430,6	0,013
431	0,013
431,5	0,014
431,9	0,014
432,4	0,014
432,8	0,014
433,3	0,014
433,8	0,014
434,2	0,015
434,7	0,015
435,1	0,015
435,6	0,014
436	0,014
436,5	0,014
436,9	0,014
437,4	0,013
437,8	0,012
438,3	0,012
438,8	0,013
439,2	0,013
439,7	0,013
440,1	0,013
440,6	0,014
441	0,014
441,5	0,014
441,9	0,014
442,4	0,015
442,8	0,014
443,3	0,014
443,7	0,014
444,2	0,014
444,7	0,014
445,1	0,014
445,6	0,014
446	0,014
446,5	0,014
446,9	0,014
447,4	0,014
447,8	0,013
448,3	0,013
448,7	0,013
449,2	0,013
449,6	0,013
450,1	0,012
450,6	0,012
451	0,013
451,5	0,013
451,9	0,013
452,4	0,013
452,8	0,013
453,3	0,014
453,7	0,013
454,2	0,013
454,6	0,013
455,1	0,013
455,5	0,013
456	0,013
456,4	0,013
456,9	0,012
457,3	0,012
457,8	0,012
458,3	0,012
458,7	0,012
459,2	0,012
459,6	0,012
460,1	0,013
460,5	0,013
461	0,013
461,4	0,013
461,9	0,013
462,3	0,012
462,8	0,012
463,2	0,012
463,7	0,012
464,1	0,012
464,6	0,012
465	0,012
465,5	0,012
466	0,012
466,4	0,012
466,9	0,012
467,3	0,012
467,8	0,012
468,2	0,012
468,7	0,012
469,1	0,012
469,6	0,012
470	0,012
470,5	0,012
470,9	0,012
471,4	0,012
471,8	0,012
472,3	0,013
472,7	0,013
473,2	0,013
473,6	0,012
474,1	0,012
474,5	0,012
475	0,012
475,4	0,012
475,9	0,011
476,4	0,012
476,8	0,012
477,3	0,012
477,7	0,011
478,2	0,011
478,6	0,011
479,1	0,011
479,5	0,011
480	0,012
480,4	0,011
480,9	0,012
481,3	0,012
481,8	0,011
482,2	0,011
482,7	0,011
483,1	0,012
483,6	0,012
484	0,012
484,5	0,012
484,9	0,011
485,4	0,011
485,8	0,011
486,3	0,01
486,7	0,01
487,2	0,01
487,6	0,01
488,1	0,011
488,5	0,011
489	0,011
489,4	0,011
489,9	0,01
490,4	0,01
490,8	0,01
491,3	0,01
491,7	0,011
492,2	0,01
492,6	0,011
493,1	0,011
493,5	0,011
494	0,011
494,4	0,011
494,9	0,01
495,3	0,01
495,8	0,009
496,2	0,009
496,7	0,009
497,1	0,01
497,6	0,01
498	0,011
498,5	0,01
498,9	0,011
499,4	0,011
499,8	0,011
500,3	0,01
500,7	0,011
501,2	0,01
501,6	0,011
502,1	0,011
502,5	0,01
503	0,01
503,4	0,01
503,9	0,01
504,3	0,011
504,8	0,011
505,2	0,01
505,7	0,01
506,1	0,01
506,6	0,01
507	0,01
507,5	0,01
507,9	0,01
508,4	0,01
508,8	0,01
509,3	0,01
509,7	0,01
510,2	0,01
510,6	0,01
511,1	0,01
511,5	0,01
512	0,01
512,4	0,01
512,9	0,01
513,3	0,01
513,8	0,01
514,2	0,01
514,7	0,01
515,1	0,01
515,6	0,01
516	0,01
516,5	0,01
516,9	0,01
517,4	0,009
517,8	0,009
518,3	0,009
518,7	0,009
519,2	0,009
519,6	0,009
520,1	0,009
520,5	0,009
521	0,01
521,4	0,009
521,9	0,009
522,3	0,009
522,8	0,009
523,2	0,008
523,7	0,008
524,1	0,008
524,6	0,008
525	0,008
525,5	0,008
525,9	0,008
526,4	0,008
526,8	0,008
527,3	0,008
527,7	0,007
528,2	0,008
528,6	0,008
529,1	0,008
529,5	0,008
530	0,008
530,4	0,008
530,9	0,009
531,3	0,009
531,8	0,009
532,2	0,009
532,6	0,008
533,1	0,008
533,5	0,008
534	0,008
534,4	0,007
534,9	0,007
535,3	0,007
535,8	0,007
536,2	0,007
536,7	0,007
537,1	0,008
537,6	0,008
538	0,008
538,5	0,009
538,9	0,009
539,4	0,009
539,8	0,009
540,3	0,009
540,7	0,009
541,2	0,008
541,6	0,008
542,1	0,008
542,5	0,007
543	0,008
543,4	0,007
543,9	0,007
544,3	0,007
544,8	0,007
545,2	0,007
545,7	0,007
546,1	0,007
546,5	0,008
547	0,008
547,4	0,007
547,9	0,007
548,3	0,007
548,8	0,007
549,2	0,007
549,7	0,007
550,1	0,007
550,6	0,007
551	0,007
551,5	0,007
551,9	0,007
552,4	0,007
552,8	0,007
553,3	0,006
553,7	0,006
554,2	0,006
554,6	0,006
555,1	0,006
555,5	0,006
555,9	0,006
556,4	0,007
556,8	0,006
557,3	0,007
557,7	0,006
558,2	0,007
558,6	0,007
559,1	0,007
559,5	0,006
560	0,006
560,4	0,006
560,9	0,006
561,3	0,006
561,8	0,006
562,2	0,006
562,7	0,006
563,1	0,006
563,6	0,006
564	0,006
564,4	0,006
564,9	0,006
565,3	0,006
565,8	0,006
566,2	0,006
566,7	0,006
567,1	0,006
567,6	0,007
568	0,006
568,5	0,006
568,9	0,007
569,4	0,006
569,8	0,006
570,3	0,006
570,7	0,006
571,1	0,006
571,6	0,006
572	0,006
572,5	0,006
572,9	0,006
573,4	0,006
573,8	0,006
574,3	0,006
574,7	0,006
575,2	0,006
575,6	0,006
576,1	0,006
576,5	0,006
576,9	0,006
577,4	0,006
577,8	0,006
578,3	0,006
578,7	0,005
579,2	0,005
579,6	0,005
580,1	0,006
580,5	0,006
581	0,006
581,4	0,005
581,9	0,005
582,3	0,005
582,7	0,006
583,2	0,005
583,6	0,006
584,1	0,006
584,5	0,006
585	0,006
585,4	0,006
585,9	0,006
586,3	0,006
586,8	0,006
587,2	0,005
587,6	0,006
588,1	0,006
588,5	0,006
589	0,005
589,4	0,006
589,9	0,006
590,3	0,006
590,8	0,006
591,2	0,006
591,7	0,006
592,1	0,006
592,5	0,006
593	0,006
593,4	0,006
593,9	0,006
594,3	0,006
594,8	0,005
595,2	0,006
595,7	0,005
596,1	0,005
596,6	0,005
597	0,005
597,4	0,005
597,9	0,005
598,3	0,005
598,8	0,005
599,2	0,005
599,7	0,005
600,1	0,005
600,6	0,005
601	0,005
601,4	0,005
601,9	0,005
602,3	0,005
602,8	0,005
603,2	0,005
603,7	0,005
604,1	0,005
604,6	0,005
605	0,005
605,4	0,005
605,9	0,005
606,3	0,005
606,8	0,005
607,2	0,004
607,7	0,004
608,1	0,004
608,6	0,004
609	0,004
609,4	0,004
609,9	0,004
610,3	0,004
610,8	0,004
611,2	0,004
611,7	0,004
612,1	0,004
612,6	0,005
613	0,004
613,4	0,004
613,9	0,005
614,3	0,005
614,8	0,004
615,2	0,004
615,7	0,004
616,1	0,004
616,6	0,004
617	0,004
617,4	0,004
617,9	0,005
618,3	0,005
618,8	0,005
619,2	0,005
619,7	0,005
620,1	0,005
620,5	0,005
621	0,005
621,4	0,004
621,9	0,004
622,3	0,004
622,8	0,004
623,2	0,004
623,6	0,004
624,1	0,004
624,5	0,004
625	0,004
625,4	0,004
625,9	0,004
626,3	0,004
626,8	0,004
627,2	0,004
627,6	0,004
628,1	0,004
628,5	0,005
629	0,004
629,4	0,004
629,9	0,005
630,3	0,004
630,7	0,004
631,2	0,004
631,6	0,003
632,1	0,003
632,5	0,003
633	0,002
633,4	0,003
633,8	0,003
634,3	0,004
634,7	0,004
635,2	0,004
635,6	0,004
636,1	0,004
636,5	0,004
636,9	0,004
637,4	0,004
637,8	0,003
638,3	0,003
638,7	0,004
639,2	0,004
639,6	0,004
640	0,004
640,5	0,004
640,9	0,004
641,4	0,004
641,8	0,004
642,2	0,004
642,7	0,004
643,1	0,004
643,6	0,004
644	0,003
644,5	0,003
644,9	0,003
645,3	0,003
645,8	0,003
646,2	0,003
646,7	0,004
647,1	0,004
647,6	0,003
648	0,004
648,4	0,004
648,9	0,003
649,3	0,003
649,8	0,003
650,2	0,003
650,6	0,004
651,1	0,003
651,5	0,003
652	0,003
652,4	0,003
652,9	0,003
653,3	0,005
653,7	0,008
654,2	0,005
654,6	0,004
655,1	0,003
655,5	0,002
655,9	0,002
656,4	0,001
656,8	-0
657,3	-0
657,7	-0
658,2	0
658,6	0,002
659	0,003
659,5	0,003
659,9	0,003
660,4	0,003
660,8	0,002
661,2	0,002
661,7	0,002
662,1	0,003
662,6	0,002
663	0,002
663,4	0,002
663,9	0,002
664,3	0,002
664,8	0,002
665,2	0,002
665,6	0,002
666,1	0,003
666,5	0,003
667	0,003
667,4	0,002
667,9	0,002
668,3	0,003
668,7	0,003
669,2	0,003
669,6	0,002
670,1	0,002
670,5	0,002
670,9	0,002
671,4	0,002
671,8	0,002
672,3	0,002
672,7	0,002
673,1	0,003
673,6	0,003
674	0,003
674,5	0,003
674,9	0,003
675,3	0,003
675,8	0,003
676,2	0,003
676,7	0,003
677,1	0,003
677,5	0,003
678	0,003
678,4	0,003
678,9	0,003
679,3	0,003
679,7	0,003
680,2	0,002
680,6	0,002
681,1	0,002
681,5	0,002
681,9	0,003
682,4	0,003
682,8	0,003
683,3	0,003
683,7	0,003
684,1	0,003
684,6	0,003
685	0,003
685,5	0,003
685,9	0,002
686,3	0,002
686,8	0,002
687,2	0,002
687,7	0,002
688,1	0,002
688,5	0,002
689	0,002
689,4	0,002
689,9	0,003
690,3	0,003
690,7	0,003
691,2	0,003
691,6	0,002
692	0,002
692,5	0,002
692,9	0,002
693,4	0,002
693,8	0,002
694,2	0,002
694,7	0,002
695,1	0,003
695,6	0,003
696	0,003
696,4	0,003
696,9	0,003
697,3	0,003
697,8	0,003
698,2	0,003
698,6	0,003
699,1	0,002
699,5	0,002
699,9	0,002
700,4	0,002
700,8	0,002
701,3	0,002
701,7	0,002
702,1	0,002
702,6	0,002
703	0,002
703,5	0,002
703,9	0,002
704,3	0,003
704,8	0,003
705,2	0,003
705,6	0,003
706,1	0,003
706,5	0,003
707	0,003
707,4	0,002
707,8	0,002
708,3	0,002
708,7	0,002
709,2	0,002
709,6	0,002
710	0,002
710,5	0,002
710,9	0,002
711,3	0,002
711,8	0,001
712,2	0,001
712,7	0,001
713,1	0,001
713,5	0,001
714	0,001
714,4	0,002
714,8	0,002
715,3	0,002
715,7	0,002
716,2	0,002
716,6	0,002
717	0,002
717,5	0,002
717,9	0,002
718,3	0,002
718,8	0,002
719,2	0,002
719,7	0,003
720,1	0,003
720,5	0,003
721	0,003
721,4	0,003
721,8	0,003
722,3	0,002
722,7	0,002
723,2	0,002
723,6	0,002
724	0,002
724,5	0,003
724,9	0,003
725,3	0,003
725,8	0,003
726,2	0,003
726,7	0,003
727,1	0,003
727,5	0,003
728	0,003
728,4	0,003
728,8	0,003
729,3	0,003
729,7	0,003
730,1	0,003
730,6	0,003
731	0,003
731,5	0,003
731,9	0,003
732,3	0,003
732,8	0,003
733,2	0,002
733,6	0,002
734,1	0,002
734,5	0,002
734,9	0,002
735,4	0,003
735,8	0,003
736,3	0,003
736,7	0,003
737,1	0,003
737,6	0,003
738	0,003
738,4	0,003
738,9	0,003
739,3	0,003
739,7	0,003
740,2	0,003
740,6	0,003
741,1	0,002
741,5	0,002
741,9	0,002
742,4	0,002
742,8	0,003
743,2	0,002
743,7	0,002
744,1	0,002
744,5	0,002
745	0,002
745,4	0,002
745,8	0,002
746,3	0,002
746,7	0,002
747,2	0,002
747,6	0,003
748	0,002
748,5	0,003
748,9	0,003
749,3	0,003
749,8	0,003
750,2	0,003
750,6	0,003
751,1	0,003
751,5	0,003
751,9	0,002
752,4	0,002
752,8	0,002
753,3	0,002
753,7	0,002
754,1	0,002
754,6	0,002
755	0,002
755,4	0,002
755,9	0,002
756,3	0,002
756,7	0,002
757,2	0,002
757,6	0,002
758	0,002
758,5	0,002
758,9	0,002
759,3	0,002
759,8	0,002
760,2	0,002
760,6	0,002
761,1	0,002
761,5	0,002
761,9	0,002
762,4	0,002
762,8	0,002
763,3	0,002
763,7	0,002
764,1	0,002
764,6	0,002
765	0,002
765,4	0,002
765,9	0,002
766,3	0,002
766,7	0,002
767,2	0,003
767,6	0,003
768	0,003
768,5	0,003
768,9	0,003
769,3	0,003
769,8	0,003
770,2	0,002
770,6	0,003
771,1	0,003
771,5	0,003
771,9	0,003
772,4	0,003
772,8	0,002
773,2	0,002
773,7	0,002
774,1	0,001
774,5	0,001
775	0,001
775,4	0
775,8	0
776,3	0
776,7	0,001
777,1	0,001
777,6	0,001
778	0,002
778,4	0,002
778,9	0,002
779,3	0,002
779,7	0,002
780,2	0,002
780,6	0,002
781	0,002
781,5	0,002
781,9	0,002
782,3	0,002
782,8	0,002
783,2	0,002
783,6	0,001
784,1	0,001
784,5	0,001
784,9	0
785,4	0
785,8	0
786,2	0
786,7	0,001
787,1	0,001
787,5	0,001
788	0,002
788,4	0,002
788,8	0,002
789,3	0,002
789,7	0,002
790,1	0,002
790,6	0,002
791	0,002
791,4	0,002
791,9	0,002
792,3	0,001
792,7	0,002
793,2	0,002
793,6	0,002
794	0,002
794,5	0,003
794,9	0,003
795,3	0,003
795,8	0,003
796,2	0,003
796,6	0,003
797,1	0,003
797,5	0,002
797,9	0,002
798,4	0,002
798,8	0,002
799,2	0,002
799,7	0,002
800,1	0,002
800,5	0,002
801	0,002
801,4	0,002
801,8	0,002
802,2	0,002
802,7	0,003
803,1	0,003
803,5	0,003
804	0,003
804,4	0,003
804,8	0,003
805,3	0,003
805,7	0,002
806,1	0,002
806,6	0,002
807	0,002
807,4	0,002
807,9	0,002
808,3	0,002
808,7	0,003
809,2	0,003
809,6	0,003
810	0,003
810,4	0,003
810,9	0,003
811,3	0,002
811,7	0,002
812,2	0,002
812,6	0,002
813	0,001
813,5	0,001
813,9	0,001
814,3	0,001
814,8	0,001
815,2	0,001
815,6	0,001
816,1	0
816,5	0
816,9	0
817,3	0
817,8	0,001
818,2	0,001
818,6	0,001
819,1	0,001
819,5	0,002
819,9	0,001
820,4	0,001
820,8	0,001
821,2	0,001
821,7	0,001
822,1	0,001
822,5	0,001
822,9	0,001
823,4	0,002
823,8	0,001
824,2	0,002
824,7	0,002
825,1	0,002
825,5	0,002
826	0,002
826,4	0,002
826,8	0,002
827,3	0,001
827,7	0,001
828,1	0,001
828,5	0,001
829	0,001
829,4	0,001
829,8	0,001
830,3	0,001
830,7	0,001
831,1	0,002
831,6	0,002
832	0,002
832,4	0,002
832,8	0,002
833,3	0,002
833,7	0,002
834,1	0,002
834,6	0,001
835	0,001
835,4	0,001
835,8	0,001
836,3	0,001
836,7	0,001
837,1	0,001
837,6	0,001
838	0,001
838,4	0,001
838,9	0,001
839,3	0,001
839,7	0,001
840,1	0,001
840,6	0,001
841	0,001
841,4	0,001
841,9	0,002
842,3	0,001
842,7	0,001
843,1	0,001
843,6	0,002
844	0,002
844,4	0,002
844,9	0,002
845,3	0,002
845,7	0,002
846,2	0,002
846,6	0,002
847	0,002
847,4	0,001
847,9	0,001
848,3	0,001
848,7	0,001
849,2	0,001
849,6	0,001
850	0,001
850,4	0,001
850,9	0,001
851,3	0,001
851,7	0,001
852,2	0,001
852,6	0,001
853	0,002
853,4	0,002
853,9	0,002
854,3	0,002
854,7	0,002
855,2	0,001
855,6	0,002
856	0,002
856,4	0,002
856,9	0,002
857,3	0,001
857,7	0,002
858,2	0,002
858,6	0,002
859	0,002
859,4	0,002
859,9	0,002
860,3	0,002
860,7	0,002
861,1	0,002
861,6	0,002
862	0,002
862,4	0,001
862,9	0,002
863,3	0,002
863,7	0,002
864,1	0,002
864,6	0,003
865	0,003
865,4	0,003
865,9	0,003
866,3	0,003
866,7	0,002
867,1	0,002
867,6	0,002
868	0,002
868,4	0,002
868,8	0,002
869,3	0,002
869,7	0,002
870,1	0,002
870,6	0,003
871	0,003
871,4	0,002
871,8	0,002
872,3	0,002
872,7	0,002
873,1	0,002
873,5	0,002
874	0,002
874,4	0,002
874,8	0,002
875,3	0,002
875,7	0,001
876,1	0,002
876,5	0,001
877	0,001
877,4	0,002
877,8	0,002
878,2	0,002
878,7	0,002
879,1	0,002
879,5	0,002
879,9	0,002
880,4	0,002
880,8	0,001
881,2	0,001
881,7	0,001
882,1	0,002
882,5	0,002
882,9	0,002
883,4	0,002
883,8	0,002
884,2	0,002
884,6	0,002
885,1	0,002
885,5	0,002
885,9	0,002
886,3	0,002
886,8	0,002
887,2	0,002
887,6	0,003
888	0,003
888,5	0,003
888,9	0,003
889,3	0,003
889,8	0,003
890,2	0,002
890,6	0,002
891	0,003
891,5	0,003
891,9	0,002
892,3	0,002
892,7	0,002
893,2	0,002
893,6	0,002
894	0,002
894,4	0,002
894,9	0,002
895,3	0,002
895,7	0,002
896,1	0,002
896,6	0,001
897	0,001
897,4	0,002
897,8	0,002
898,3	0,001
898,7	0,002
899,1	0,002
899,5	0,003
900	0,002
900,4	0,002
900,8	0,002
901,2	0,002
901,7	0,002
902,1	0,002
902,5	0,002
902,9	0,002
903,4	0,002
903,8	0,002
904,2	0,002
904,6	0,002
905,1	0,002
905,5	0,003
905,9	0,003
906,3	0,003
906,8	0,003
907,2	0,003
907,6	0,003
908	0,003
908,5	0,003
908,9	0,003
909,3	0,003
909,7	0,002
910,2	0,002
910,6	0,002
911	0,002
911,4	0,002
911,9	0,002
912,3	0,002
912,7	0,002
913,1	0,002
913,6	0,002
914	0,002
914,4	0,002
914,8	0,002
915,3	0,002
915,7	0,002
916,1	0,002
916,5	0,002
916,9	0,001
917,4	0,001
917,8	0,001
918,2	0,001
918,6	0
919,1	0,001
919,5	0
919,9	0
920,3	0,001
920,8	0,001
921,2	0,001
921,6	0,001
922	0,002
922,5	0,002
922,9	0,002
923,3	0,002
923,7	0,002
924,2	0,002
924,6	0,002
925	0,001
925,4	0,001
925,8	0,001
926,3	0,001
926,7	0,001
927,1	0,001
927,5	0,001
928	0,001
928,4	0,002
928,8	0,002
929,2	0,002
929,7	0,002
930,1	0,003
930,5	0,003
930,9	0,002
931,3	0,002
931,8	0,002
932,2	0,002
932,6	0,002
933	0,002
933,5	0,003
933,9	0,003
934,3	0,003
934,7	0,002
935,2	0,002
935,6	0,002
936	0,001
936,4	0,001
936,8	0,001
937,3	0,001
937,7	0,001
938,1	0,001
938,5	0,001
939	0,002
939,4	0,002
939,8	0,002
940,2	0,002
940,6	0,002
941,1	0,002
941,5	0,002
941,9	0,002
942,3	0,002
942,8	0,002
943,2	0,002
943,6	0,002
944	0,002
944,4	0,001
944,9	0,001
945,3	0,001
945,7	0,001
946,1	0,002
946,6	0,002
947	0,002
947,4	0,002
947,8	0,003
948,2	0,002
948,7	0,003
949,1	0,002
949,5	0,003
949,9	0,002
950,3	0,002
950,8	0,002
951,2	0,002
951,6	0,002
952	0,002
952,5	0,002
952,9	0,002
953,3	0,002
953,7	0,003
954,1	0,003
954,6	0,002
955	0,002
955,4	0,002
955,8	0,002
956,2	0,002
956,7	0,002
957,1	0,002
957,5	0,002
957,9	0,002
958,3	0,002
958,8	0,003
959,2	0,002
959,6	0,003
960	0,002
960,5	0,002
960,9	0,002
961,3	0,003
961,7	0,002
962,1	0,002
962,6	0,003
963	0,002
963,4	0,003
963,8	0,003
964,2	0,003
964,7	0,004
965,1	0,004
965,5	0,004
965,9	0,004
966,3	0,004
966,8	0,004
967,2	0,004
967,6	0,003
968	0,004
968,4	0,004
968,9	0,004
969,3	0,004
969,7	0,004
970,1	0,003
970,5	0,003
971	0,003
971,4	0,002
971,8	0,002
972,2	0,001
972,6	0,001
973,1	0,001
973,5	0,001
973,9	0,001
974,3	0,002
974,7	0,001
975,2	0,002
975,6	0,002
976	0,002
976,4	0,002
976,8	0,002
977,3	0,001
977,7	0,002
978,1	0,002
978,5	0,002
978,9	0,002
979,4	0,002
979,8	0,002
980,2	0,002
980,6	0,002
981	0,002
981,5	0,002
981,9	0,002
982,3	0,002
982,7	0,002
983,1	0,001
983,6	0,001
984	0,002
984,4	0,002
984,8	0,002
985,2	0,002
985,6	0,002
986,1	0,002
986,5	0,002
986,9	0,003
987,3	0,003
987,7	0,003
988,2	0,004
988,6	0,004
989	0,004
989,4	0,003
989,8	0,003
990,3	0,002
990,7	0,002
991,1	0,001
991,5	0,001
991,9	0,001
992,3	0,001
992,8	0,001
993,2	0,001
993,6	0,002
994	0,002
994,4	0,002
994,9	0,001
995,3	0,002
995,7	0,002
996,1	0,003
996,5	0,003
996,9	0,003
997,4	0,003
997,8	0,003
998,2	0,003
998,6	0,003
999	0,003
999,5	0,003
999,9	0,003
1000,3	0,003
1000,7	0,004
1001,1	0,004
1001,5	0,004
1002	0,004
1002,4	0,004
1002,8	0,004
1003,2	0,004
1003,6	0,003
1004	0,003
1004,5	0,003
1004,9	0,003
1005,3	0,003
1005,7	0,003
1006,1	0,003
1006,6	0,003
1007	0,003
1007,4	0,002
1007,8	0,002
1008,2	0,002
1008,6	0,002
1009,1	0,002
1009,5	0,002
1009,9	0,002
1010,3	0,002
1010,7	0,002
1011,1	0,003
1011,6	0,003
1012	0,003
1012,4	0,003
1012,8	0,002
1013,2	0,002
1013,6	0,001
1014,1	0,001
1014,5	0,001
1014,9	0,002
1015,3	0,002
1015,7	0,002
1016,1	0,002
1016,6	0,003
1017	0,002
1017,4	0,002
1017,8	0,002
1018,2	0,002
1018,6	0,002
1019,1	0,002
1019,5	0,001
1019,9	0,001
1020,3	0,001
1020,7	0,001
1021,1	0,001
1021,6	0,001
1022	0,001
1022,4	0,002
1022,8	0,003
1023,2	0,003
1023,6	0,003
1024,1	0,003
1024,5	0,003
1024,9	0,004
1025,3	0,003
1025,7	0,002
1026,1	0,001
1026,6	0
1027	0,001
1027,4	0,001
1027,8	0
1028,2	0,001
1028,6	0,001
1029	0,002
1029,5	0,001
1029,9	0,001
1030,3	0,002
1030,7	0,002
1031,1	0,002
1031,5	0,001
1032	0,002
1032,4	0,001
1032,8	0,002
1033,2	0,001
1033,6	0,001
1034	0,001
1034,4	0
1034,9	0
1035,3	0
1035,7	0
1036,1	0,001
1036,5	0,001
1036,9	0,001
1037,4	0,001
1037,8	0,002
1038,2	0,003
1038,6	0,003
1039	0,003
1039,4	0,003
1039,8	0,003
1040,3	0,003
1040,7	0,003
1041,1	0,002
1041,5	0,002
1041,9	0,002
1042,3	0,002
1042,7	0,002
1043,2	0,002
1043,6	0,002
1044	0,003
1044,4	0,003
1044,8	0,003
1045,2	0,003
1045,6	0,003
1046,1	0,003
1046,5	0,002
1046,9	0,002
1047,3	0,002
1047,7	0,001
1048,1	0,001
1048,5	0,001
1049	0,001
1049,4	0,002
1049,8	0,002
1050,2	0,003
1050,6	0,004
1051	0,004
1051,4	0,004
1051,9	0,005
1052,3	0,005
1052,7	0,004
1053,1	0,004
1053,5	0,003
1053,9	0,003
1054,3	0,003
1054,8	0,003
1055,2	0,003
1055,6	0,004
1056	0,004
1056,4	0,004
1056,8	0,004
1057,2	0,004
1057,6	0,004
1058,1	0,003
1058,5	0,003
1058,9	0,002
1059,3	0,002
1059,7	0,002
1060,1	0,002
1060,5	0,002
1061	0,002
1061,4	0,001
1061,8	0,003
1062,2	0,002
1062,6	0,002
1063	0,003
1063,4	0,002
1063,8	0,003
1064,3	0,003
1064,7	0,001
1065,1	0,002
1065,5	0,001
1065,9	0
1066,3	0,001
1066,7	0,001
1067,1	0,002
1067,6	0,004
1068	0,004
1068,4	0,003
1068,8	0,004
1069,2	0,004
1069,6	0,006
1070	0,005
1070,4	0,004
1070,9	0,004
1071,3	0,005
1071,7	0,005
1072,1	0,004
1072,5	0,003
1072,9	0,003
1073,3	0,003
1073,7	0,003
1074,2	0,003
1074,6	0,002
1075	0,003
1075,4	0,002
1075,8	0,002
1076,2	0,001
1076,6	0,001
1077	0,002
1077,5	0,002
1077,9	0,003
1078,3	0,004
1078,7	0,005
1079,1	0,007
1079,5	0,006
1079,9	0,007
1080,3	0,007
1080,7	0,007
1081,2	0,007
1081,6	0,006
1082	0,005
1082,4	0,006
1082,8	0,007
1083,2	0,008
1083,6	0,006
1084	0,005
1084,5	0,006
1084,9	0,008
1085,3	0,007
1085,7	0,006
1086,1	0,004
1086,5	0,007
1086,9	0,007
1087,3	0,006
1087,7	0,006
1088,2	0,005
1088,6	0,006
1089	0,007
1089,4	0,007
1089,8	0,009
1090,2	0,009
1090,6	0,011
1091	0,011
1091,4	0,01
1091,9	0,007
1092,3	0,007
1092,7	0,006
1093,1	0,007
1093,5	0,001
1093,9	0,005
1094,3	0,004
1094,7	0,007
1095,1	0,004
1095,5	0,003
1096	0,005
1096,4	0,003
1096,8	-0,005
1097,2	-0
1097,6	0,004
1098	0,004
1098,4	0,005
1098,8	0
1099,2	0,008
1099,6	0,022
1100,1	0,024
1100,5	0,02
1100,9	0,025
1101,3	0,029
1101,7	0,033
1102,1	0,038
1102,5	0,034
1102,9	0,023
1103,3	0,015
1103,7	0,017
1104,2	0,017
1104,6	0,016
1105	0,002
1105,4	-0,002
1105,8	0,01
1106,2	0,016
1106,6	0,01
1107	0,003
1107,4	0,007
1107,8	0,014
1108,3	0,042
