Data from Absorbance_041.txt Node
Date: Fri Nov 13 13:35:00 MSK 2020
User: vat
Spectrometer: MAYP114033
Trigger mode: 0
Integration Time (sec): 8,000000E-3
Scans to average: 10
Electric dark correction enabled: true
Nonlinearity correction enabled: false
Boxcar width: 3
XAxis mode: Wavelengths
Number of Pixels in Spectrum: 2068
>>>>>Begin Spectral Data<<<<<
199,4	-0
199,9	-0
200,4	0,196
200,8	0,154
201,3	0,089
201,8	0,091
202,2	0,081
202,7	0,059
203,2	0,055
203,6	0,055
204,1	0,057
204,6	0,058
205	0,048
205,5	0,051
206	0,041
206,4	0,034
206,9	0,056
207,4	0,053
207,8	0,053
208,3	0,061
208,8	0,057
209,2	0,062
209,7	0,073
210,2	0,066
210,6	0,062
211,1	0,08
211,5	0,084
212	0,102
212,5	0,112
212,9	0,119
213,4	0,119
213,9	0,119
214,3	0,099
214,8	0,119
215,3	0,096
215,7	0,089
216,2	0,092
216,7	0,11
217,1	0,104
217,6	0,09
218,1	0,053
218,5	0,063
219	0,078
219,5	0,07
219,9	0,049
220,4	0,049
220,9	0,058
221,3	0,079
221,8	0,084
222,3	0,065
222,7	0,085
223,2	0,1
223,6	0,11
224,1	0,115
224,6	0,095
225	0,105
225,5	0,116
226	0,096
226,4	0,095
226,9	0,082
227,4	0,07
227,8	0,092
228,3	0,088
228,8	0,094
229,2	0,103
229,7	0,094
230,2	0,103
230,6	0,106
231,1	0,097
231,5	0,087
232	0,074
232,5	0,07
232,9	0,07
233,4	0,083
233,9	0,088
234,3	0,096
234,8	0,1
235,3	0,102
235,7	0,096
236,2	0,101
236,7	0,081
237,1	0,089
237,6	0,094
238,1	0,095
238,5	0,095
239	0,096
239,4	0,097
239,9	0,106
240,4	0,105
240,8	0,11
241,3	0,12
241,8	0,138
242,2	0,132
242,7	0,13
243,2	0,142
243,6	0,145
244,1	0,144
244,6	0,144
245	0,138
245,5	0,153
245,9	0,149
246,4	0,147
246,9	0,148
247,3	0,141
247,8	0,133
248,3	0,133
248,7	0,138
249,2	0,154
249,7	0,155
250,1	0,151
250,6	0,151
251	0,15
251,5	0,148
252	0,144
252,4	0,138
252,9	0,138
253,4	0,141
253,8	0,143
254,3	0,147
254,8	0,151
255,2	0,154
255,7	0,159
256,1	0,162
256,6	0,166
257,1	0,171
257,5	0,175
258	0,18
258,5	0,185
258,9	0,19
259,4	0,195
259,9	0,2
260,3	0,206
260,8	0,212
261,2	0,218
261,7	0,225
262,2	0,231
262,6	0,237
263,1	0,244
263,6	0,251
264	0,258
264,5	0,266
264,9	0,273
265,4	0,28
265,9	0,288
266,3	0,296
266,8	0,303
267,3	0,31
267,7	0,318
268,2	0,325
268,7	0,332
269,1	0,338
269,6	0,346
270	0,353
270,5	0,361
271	0,369
271,4	0,376
271,9	0,384
272,4	0,391
272,8	0,398
273,3	0,405
273,7	0,41
274,2	0,416
274,7	0,422
275,1	0,428
275,6	0,435
276,1	0,44
276,5	0,446
277	0,451
277,4	0,456
277,9	0,461
278,4	0,465
278,8	0,468
279,3	0,472
279,8	0,475
280,2	0,477
280,7	0,479
281,1	0,48
281,6	0,482
282,1	0,483
282,5	0,484
283	0,485
283,4	0,486
283,9	0,485
284,4	0,485
284,8	0,483
285,3	0,481
285,8	0,478
286,2	0,475
286,7	0,471
287,1	0,467
287,6	0,463
288,1	0,458
288,5	0,452
289	0,447
289,5	0,44
289,9	0,435
290,4	0,427
290,8	0,42
291,3	0,413
291,8	0,405
292,2	0,397
292,7	0,389
293,1	0,38
293,6	0,371
294,1	0,363
294,5	0,353
295	0,343
295,5	0,333
295,9	0,323
296,4	0,313
296,8	0,302
297,3	0,292
297,8	0,282
298,2	0,271
298,7	0,261
299,1	0,25
299,6	0,241
300,1	0,231
300,5	0,221
301	0,212
301,5	0,202
301,9	0,194
302,4	0,185
302,8	0,176
303,3	0,168
303,8	0,16
304,2	0,152
304,7	0,145
305,1	0,137
305,6	0,13
306,1	0,124
306,5	0,117
307	0,111
307,4	0,106
307,9	0,1
308,4	0,095
308,8	0,089
309,3	0,085
309,8	0,08
310,2	0,076
310,7	0,072
311,1	0,068
311,6	0,064
312,1	0,061
312,5	0,058
313	0,054
313,4	0,052
313,9	0,049
314,4	0,046
314,8	0,043
315,3	0,041
315,7	0,039
316,2	0,037
316,7	0,035
317,1	0,034
317,6	0,032
318	0,031
318,5	0,03
319	0,028
319,4	0,027
319,9	0,026
320,3	0,025
320,8	0,024
321,3	0,023
321,7	0,022
322,2	0,022
322,6	0,021
323,1	0,021
323,6	0,02
324	0,02
324,5	0,019
324,9	0,019
325,4	0,018
325,9	0,018
326,3	0,017
326,8	0,017
327,2	0,017
327,7	0,017
328,2	0,016
328,6	0,016
329,1	0,016
329,5	0,015
330	0,015
330,5	0,015
330,9	0,015
331,4	0,015
331,8	0,015
332,3	0,015
332,8	0,015
333,2	0,015
333,7	0,014
334,1	0,014
334,6	0,013
335,1	0,013
335,5	0,013
336	0,012
336,4	0,013
336,9	0,012
337,4	0,013
337,8	0,013
338,3	0,014
338,7	0,013
339,2	0,013
339,7	0,013
340,1	0,013
340,6	0,013
341	0,013
341,5	0,013
342	0,013
342,4	0,013
342,9	0,013
343,3	0,013
343,8	0,013
344,2	0,013
344,7	0,013
345,2	0,013
345,6	0,013
346,1	0,013
346,5	0,012
347	0,012
347,5	0,012
347,9	0,012
348,4	0,012
348,8	0,012
349,3	0,012
349,8	0,012
350,2	0,012
350,7	0,013
351,1	0,012
351,6	0,012
352	0,012
352,5	0,012
353	0,012
353,4	0,012
353,9	0,011
354,3	0,011
354,8	0,011
355,3	0,012
355,7	0,011
356,2	0,011
356,6	0,011
357,1	0,011
357,5	0,011
358	0,01
358,5	0,01
358,9	0,01
359,4	0,011
359,8	0,011
360,3	0,012
360,8	0,012
361,2	0,012
361,7	0,011
362,1	0,011
362,6	0,011
363	0,011
363,5	0,011
364	0,01
364,4	0,01
364,9	0,011
365,3	0,011
365,8	0,011
366,3	0,011
366,7	0,01
367,2	0,01
367,6	0,01
368,1	0,01
368,5	0,01
369	0,01
369,5	0,01
369,9	0,01
370,4	0,01
370,8	0,01
371,3	0,009
371,7	0,01
372,2	0,009
372,7	0,009
373,1	0,009
373,6	0,01
374	0,01
374,5	0,01
374,9	0,01
375,4	0,01
375,9	0,01
376,3	0,01
376,8	0,01
377,2	0,01
377,7	0,01
378,2	0,01
378,6	0,01
379,1	0,01
379,5	0,01
380	0,01
380,4	0,01
380,9	0,01
381,4	0,01
381,8	0,009
382,3	0,009
382,7	0,009
383,2	0,009
383,6	0,009
384,1	0,01
384,6	0,01
385	0,01
385,5	0,01
385,9	0,009
386,4	0,009
386,8	0,009
387,3	0,009
387,7	0,008
388,2	0,008
388,7	0,008
389,1	0,008
389,6	0,008
390	0,008
390,5	0,008
390,9	0,008
391,4	0,009
391,9	0,009
392,3	0,009
392,8	0,009
393,2	0,008
393,7	0,008
394,1	0,009
394,6	0,009
395,1	0,009
395,5	0,009
396	0,009
396,4	0,008
396,9	0,008
397,3	0,008
397,8	0,008
398,2	0,008
398,7	0,008
399,2	0,008
399,6	0,008
400,1	0,008
400,5	0,009
401	0,009
401,4	0,009
401,9	0,009
402,4	0,009
402,8	0,008
403,3	0,009
403,7	0,008
404,2	0,008
404,6	0,009
405,1	0,008
405,5	0,008
406	0,009
406,5	0,008
406,9	0,008
407,4	0,008
407,8	0,008
408,3	0,008
408,7	0,007
409,2	0,007
409,6	0,007
410,1	0,007
410,6	0,007
411	0,007
411,5	0,007
411,9	0,008
412,4	0,008
412,8	0,008
413,3	0,008
413,7	0,008
414,2	0,008
414,7	0,008
415,1	0,007
415,6	0,007
416	0,007
416,5	0,007
416,9	0,007
417,4	0,007
417,8	0,007
418,3	0,007
418,8	0,008
419,2	0,008
419,7	0,008
420,1	0,008
420,6	0,008
421	0,007
421,5	0,007
421,9	0,007
422,4	0,007
422,8	0,007
423,3	0,007
423,8	0,007
424,2	0,007
424,7	0,007
425,1	0,007
425,6	0,006
426	0,006
426,5	0,007
426,9	0,007
427,4	0,007
427,9	0,007
428,3	0,007
428,8	0,007
429,2	0,007
429,7	0,007
430,1	0,006
430,6	0,006
431	0,006
431,5	0,006
431,9	0,006
432,4	0,006
432,8	0,007
433,3	0,007
433,8	0,007
434,2	0,008
434,7	0,007
435,1	0,007
435,6	0,007
436	0,007
436,5	0,007
436,9	0,007
437,4	0,007
437,8	0,007
438,3	0,007
438,8	0,008
439,2	0,008
439,7	0,008
440,1	0,007
440,6	0,007
441	0,007
441,5	0,006
441,9	0,006
442,4	0,006
442,8	0,006
443,3	0,006
443,7	0,006
444,2	0,006
444,7	0,006
445,1	0,006
445,6	0,006
446	0,006
446,5	0,007
446,9	0,007
447,4	0,007
447,8	0,007
448,3	0,007
448,7	0,007
449,2	0,007
449,6	0,007
450,1	0,007
450,6	0,007
451	0,007
451,5	0,007
451,9	0,006
452,4	0,006
452,8	0,006
453,3	0,006
453,7	0,006
454,2	0,006
454,6	0,006
455,1	0,006
455,5	0,006
456	0,007
456,4	0,006
456,9	0,007
457,3	0,007
457,8	0,007
458,3	0,007
458,7	0,007
459,2	0,007
459,6	0,007
460,1	0,007
460,5	0,007
461	0,007
461,4	0,006
461,9	0,006
462,3	0,006
462,8	0,006
463,2	0,006
463,7	0,006
464,1	0,006
464,6	0,006
465	0,006
465,5	0,006
466	0,006
466,4	0,006
466,9	0,006
467,3	0,006
467,8	0,006
468,2	0,006
468,7	0,006
469,1	0,006
469,6	0,005
470	0,005
470,5	0,005
470,9	0,005
471,4	0,006
471,8	0,006
472,3	0,006
472,7	0,006
473,2	0,006
473,6	0,006
474,1	0,006
474,5	0,005
475	0,006
475,4	0,005
475,9	0,006
476,4	0,006
476,8	0,006
477,3	0,006
477,7	0,007
478,2	0,007
478,6	0,007
479,1	0,007
479,5	0,006
480	0,006
480,4	0,006
480,9	0,006
481,3	0,005
481,8	0,005
482,2	0,005
482,7	0,005
483,1	0,006
483,6	0,006
484	0,006
484,5	0,006
484,9	0,005
485,4	0,005
485,8	0,005
486,3	0,005
486,7	0,004
487,2	0,003
487,6	0,003
488,1	0,004
488,5	0,005
489	0,005
489,4	0,005
489,9	0,006
490,4	0,006
490,8	0,006
491,3	0,005
491,7	0,005
492,2	0,005
492,6	0,005
493,1	0,006
493,5	0,005
494	0,005
494,4	0,006
494,9	0,005
495,3	0,005
495,8	0,005
496,2	0,005
496,7	0,005
497,1	0,005
497,6	0,005
498	0,005
498,5	0,005
498,9	0,005
499,4	0,005
499,8	0,005
500,3	0,005
500,7	0,005
501,2	0,004
501,6	0,004
502,1	0,004
502,5	0,004
503	0,004
503,4	0,003
503,9	0,004
504,3	0,004
504,8	0,004
505,2	0,004
505,7	0,005
506,1	0,005
506,6	0,006
507	0,006
507,5	0,005
507,9	0,005
508,4	0,005
508,8	0,005
509,3	0,005
509,7	0,005
510,2	0,006
510,6	0,006
511,1	0,006
511,5	0,006
512	0,006
512,4	0,006
512,9	0,005
513,3	0,005
513,8	0,005
514,2	0,005
514,7	0,005
515,1	0,005
515,6	0,005
516	0,005
516,5	0,005
516,9	0,005
517,4	0,005
517,8	0,005
518,3	0,005
518,7	0,005
519,2	0,005
519,6	0,005
520,1	0,006
520,5	0,005
521	0,005
521,4	0,005
521,9	0,005
522,3	0,005
522,8	0,005
523,2	0,005
523,7	0,004
524,1	0,004
524,6	0,004
525	0,004
525,5	0,004
525,9	0,004
526,4	0,004
526,8	0,005
527,3	0,004
527,7	0,004
528,2	0,004
528,6	0,005
529,1	0,004
529,5	0,005
530	0,005
530,4	0,005
530,9	0,005
531,3	0,005
531,8	0,005
532,2	0,006
532,6	0,005
533,1	0,005
533,5	0,005
534	0,005
534,4	0,006
534,9	0,006
535,3	0,006
535,8	0,006
536,2	0,006
536,7	0,006
537,1	0,006
537,6	0,005
538	0,005
538,5	0,004
538,9	0,004
539,4	0,004
539,8	0,003
540,3	0,003
540,7	0,004
541,2	0,004
541,6	0,004
542,1	0,004
542,5	0,004
543	0,004
543,4	0,004
543,9	0,004
544,3	0,004
544,8	0,004
545,2	0,004
545,7	0,005
546,1	0,005
546,5	0,005
547	0,005
547,4	0,005
547,9	0,005
548,3	0,004
548,8	0,004
549,2	0,004
549,7	0,004
550,1	0,004
550,6	0,005
551	0,005
551,5	0,005
551,9	0,005
552,4	0,005
552,8	0,005
553,3	0,004
553,7	0,004
554,2	0,004
554,6	0,004
555,1	0,004
555,5	0,004
555,9	0,004
556,4	0,004
556,8	0,004
557,3	0,004
557,7	0,005
558,2	0,005
558,6	0,005
559,1	0,005
559,5	0,005
560	0,005
560,4	0,005
560,9	0,004
561,3	0,004
561,8	0,004
562,2	0,004
562,7	0,004
563,1	0,004
563,6	0,004
564	0,004
564,4	0,004
564,9	0,005
565,3	0,005
565,8	0,005
566,2	0,005
566,7	0,005
567,1	0,004
567,6	0,005
568	0,005
568,5	0,004
568,9	0,004
569,4	0,004
569,8	0,004
570,3	0,004
570,7	0,004
571,1	0,004
571,6	0,004
572	0,004
572,5	0,004
572,9	0,004
573,4	0,004
573,8	0,004
574,3	0,004
574,7	0,004
575,2	0,004
575,6	0,004
576,1	0,004
576,5	0,004
576,9	0,004
577,4	0,004
577,8	0,004
578,3	0,004
578,7	0,004
579,2	0,004
579,6	0,004
580,1	0,004
580,5	0,004
581	0,004
581,4	0,004
581,9	0,003
582,3	0,003
582,7	0,004
583,2	0,004
583,6	0,004
584,1	0,004
584,5	0,004
585	0,004
585,4	0,004
585,9	0,004
586,3	0,004
586,8	0,004
587,2	0,004
587,6	0,004
588,1	0,004
588,5	0,004
589	0,004
589,4	0,004
589,9	0,004
590,3	0,004
590,8	0,004
591,2	0,004
591,7	0,004
592,1	0,004
592,5	0,004
593	0,003
593,4	0,003
593,9	0,003
594,3	0,003
594,8	0,003
595,2	0,003
595,7	0,003
596,1	0,004
596,6	0,004
597	0,004
597,4	0,004
597,9	0,004
598,3	0,004
598,8	0,004
599,2	0,004
599,7	0,004
600,1	0,004
600,6	0,003
601	0,003
601,4	0,003
601,9	0,003
602,3	0,003
602,8	0,003
603,2	0,003
603,7	0,003
604,1	0,003
604,6	0,003
605	0,003
605,4	0,003
605,9	0,003
606,3	0,003
606,8	0,004
607,2	0,003
607,7	0,004
608,1	0,004
608,6	0,004
609	0,004
609,4	0,004
609,9	0,004
610,3	0,004
610,8	0,004
611,2	0,004
611,7	0,003
612,1	0,003
612,6	0,003
613	0,003
613,4	0,003
613,9	0,003
614,3	0,003
614,8	0,003
615,2	0,003
615,7	0,003
616,1	0,003
616,6	0,003
617	0,003
617,4	0,003
617,9	0,004
618,3	0,004
618,8	0,004
619,2	0,004
619,7	0,004
620,1	0,004
620,5	0,004
621	0,003
621,4	0,004
621,9	0,004
622,3	0,003
622,8	0,003
623,2	0,003
623,6	0,003
624,1	0,003
624,5	0,003
625	0,003
625,4	0,003
625,9	0,003
626,3	0,003
626,8	0,003
627,2	0,003
627,6	0,003
628,1	0,003
628,5	0,004
629	0,003
629,4	0,003
629,9	0,004
630,3	0,004
630,7	0,003
631,2	0,003
631,6	0,003
632,1	0,003
632,5	0,004
633	0,003
633,4	0,003
633,8	0,004
634,3	0,004
634,7	0,004
635,2	0,004
635,6	0,004
636,1	0,004
636,5	0,004
636,9	0,004
637,4	0,004
637,8	0,004
638,3	0,004
638,7	0,004
639,2	0,003
639,6	0,003
640	0,003
640,5	0,003
640,9	0,003
641,4	0,003
641,8	0,003
642,2	0,003
642,7	0,004
643,1	0,004
643,6	0,003
644	0,003
644,5	0,003
644,9	0,003
645,3	0,003
645,8	0,003
646,2	0,004
646,7	0,004
647,1	0,004
647,6	0,004
648	0,004
648,4	0,004
648,9	0,004
649,3	0,003
649,8	0,004
650,2	0,003
650,6	0,003
651,1	0,003
651,5	0,003
652	0,003
652,4	0,003
652,9	0,004
653,3	0,005
653,7	0,008
654,2	0,006
654,6	0,004
655,1	0,003
655,5	0,002
655,9	0,002
656,4	0,002
656,8	-0
657,3	-0
657,7	0
658,2	0,001
658,6	0,003
659	0,003
659,5	0,003
659,9	0,003
660,4	0,003
660,8	0,004
661,2	0,004
661,7	0,004
662,1	0,003
662,6	0,003
663	0,003
663,4	0,003
663,9	0,003
664,3	0,003
664,8	0,003
665,2	0,003
665,6	0,003
666,1	0,003
666,5	0,003
667	0,003
667,4	0,003
667,9	0,003
668,3	0,003
668,7	0,003
669,2	0,003
669,6	0,003
670,1	0,003
670,5	0,003
670,9	0,003
671,4	0,004
671,8	0,003
672,3	0,003
672,7	0,003
673,1	0,002
673,6	0,002
674	0,002
674,5	0,002
674,9	0,002
675,3	0,002
675,8	0,003
676,2	0,003
676,7	0,003
677,1	0,003
677,5	0,003
678	0,003
678,4	0,004
678,9	0,003
679,3	0,004
679,7	0,003
680,2	0,003
680,6	0,003
681,1	0,004
681,5	0,004
681,9	0,004
682,4	0,004
682,8	0,004
683,3	0,004
683,7	0,004
684,1	0,004
684,6	0,004
685	0,004
685,5	0,004
685,9	0,003
686,3	0,003
686,8	0,004
687,2	0,004
687,7	0,004
688,1	0,004
688,5	0,004
689	0,004
689,4	0,004
689,9	0,004
690,3	0,004
690,7	0,004
691,2	0,003
691,6	0,003
692	0,003
692,5	0,003
692,9	0,002
693,4	0,002
693,8	0,002
694,2	0,002
694,7	0,003
695,1	0,003
695,6	0,003
696	0,004
696,4	0,003
696,9	0,004
697,3	0,003
697,8	0,003
698,2	0,003
698,6	0,003
699,1	0,002
699,5	0,003
699,9	0,003
700,4	0,003
700,8	0,003
701,3	0,003
701,7	0,003
702,1	0,003
702,6	0,003
703	0,004
703,5	0,003
703,9	0,003
704,3	0,003
704,8	0,003
705,2	0,003
705,6	0,003
706,1	0,003
706,5	0,003
707	0,003
707,4	0,003
707,8	0,003
708,3	0,003
708,7	0,003
709,2	0,003
709,6	0,003
710	0,002
710,5	0,002
710,9	0,003
711,3	0,002
711,8	0,002
712,2	0,002
712,7	0,003
713,1	0,003
713,5	0,003
714	0,003
714,4	0,003
714,8	0,003
715,3	0,003
715,7	0,003
716,2	0,003
716,6	0,003
717	0,003
717,5	0,003
717,9	0,003
718,3	0,003
718,8	0,003
719,2	0,003
719,7	0,003
720,1	0,003
720,5	0,003
721	0,003
721,4	0,003
721,8	0,003
722,3	0,003
722,7	0,003
723,2	0,003
723,6	0,003
724	0,003
724,5	0,003
724,9	0,003
725,3	0,003
725,8	0,003
726,2	0,003
726,7	0,003
727,1	0,003
727,5	0,003
728	0,003
728,4	0,003
728,8	0,003
729,3	0,003
729,7	0,003
730,1	0,003
730,6	0,003
731	0,003
731,5	0,003
731,9	0,003
732,3	0,003
732,8	0,003
733,2	0,003
733,6	0,003
734,1	0,003
734,5	0,003
734,9	0,003
735,4	0,003
735,8	0,003
736,3	0,003
736,7	0,003
737,1	0,003
737,6	0,003
738	0,003
738,4	0,003
738,9	0,003
739,3	0,003
739,7	0,003
740,2	0,003
740,6	0,003
741,1	0,003
741,5	0,003
741,9	0,003
742,4	0,003
742,8	0,003
743,2	0,003
743,7	0,003
744,1	0,003
744,5	0,003
745	0,003
745,4	0,003
745,8	0,003
746,3	0,003
746,7	0,003
747,2	0,003
747,6	0,003
748	0,003
748,5	0,003
748,9	0,003
749,3	0,003
749,8	0,003
750,2	0,003
750,6	0,003
751,1	0,003
751,5	0,003
751,9	0,003
752,4	0,003
752,8	0,003
753,3	0,003
753,7	0,003
754,1	0,003
754,6	0,003
755	0,003
755,4	0,003
755,9	0,003
756,3	0,003
756,7	0,004
757,2	0,004
757,6	0,004
758	0,003
758,5	0,003
758,9	0,004
759,3	0,003
759,8	0,003
760,2	0,003
760,6	0,003
761,1	0,003
761,5	0,003
761,9	0,003
762,4	0,003
762,8	0,003
763,3	0,003
763,7	0,003
764,1	0,003
764,6	0,003
765	0,003
765,4	0,003
765,9	0,003
766,3	0,003
766,7	0,003
767,2	0,003
767,6	0,003
768	0,004
768,5	0,004
768,9	0,004
769,3	0,004
769,8	0,004
770,2	0,004
770,6	0,004
771,1	0,003
771,5	0,003
771,9	0,003
772,4	0,003
772,8	0,003
773,2	0,003
773,7	0,003
774,1	0,003
774,5	0,003
775	0,003
775,4	0,003
775,8	0,003
776,3	0,002
776,7	0,002
777,1	0,002
777,6	0,003
778	0,003
778,4	0,003
778,9	0,003
779,3	0,003
779,7	0,003
780,2	0,003
780,6	0,003
781	0,003
781,5	0,003
781,9	0,003
782,3	0,003
782,8	0,003
783,2	0,003
783,6	0,003
784,1	0,003
784,5	0,003
784,9	0,003
785,4	0,002
785,8	0,003
786,2	0,003
786,7	0,003
787,1	0,003
787,5	0,003
788	0,003
788,4	0,003
788,8	0,002
789,3	0,003
789,7	0,002
790,1	0,003
790,6	0,003
791	0,003
791,4	0,003
791,9	0,003
792,3	0,004
792,7	0,004
793,2	0,003
793,6	0,003
794	0,003
794,5	0,003
794,9	0,003
795,3	0,003
795,8	0,003
796,2	0,003
796,6	0,003
797,1	0,003
797,5	0,003
797,9	0,002
798,4	0,003
798,8	0,003
799,2	0,003
799,7	0,003
800,1	0,003
800,5	0,003
801	0,003
801,4	0,003
801,8	0,003
802,2	0,003
802,7	0,003
803,1	0,003
803,5	0,003
804	0,003
804,4	0,003
804,8	0,003
805,3	0,003
805,7	0,003
806,1	0,003
806,6	0,003
807	0,003
807,4	0,003
807,9	0,003
808,3	0,003
808,7	0,003
809,2	0,003
809,6	0,003
810	0,003
810,4	0,003
810,9	0,003
811,3	0,003
811,7	0,003
812,2	0,003
812,6	0,003
813	0,003
813,5	0,003
813,9	0,003
814,3	0,003
814,8	0,002
815,2	0,002
815,6	0,002
816,1	0,003
816,5	0,003
816,9	0,003
817,3	0,003
817,8	0,003
818,2	0,003
818,6	0,003
819,1	0,003
819,5	0,003
819,9	0,002
820,4	0,002
820,8	0,003
821,2	0,003
821,7	0,003
822,1	0,003
822,5	0,003
822,9	0,003
823,4	0,003
823,8	0,003
824,2	0,003
824,7	0,003
825,1	0,003
825,5	0,003
826	0,003
826,4	0,003
826,8	0,003
827,3	0,003
827,7	0,003
828,1	0,002
828,5	0,002
829	0,003
829,4	0,003
829,8	0,003
830,3	0,003
830,7	0,003
831,1	0,003
831,6	0,003
832	0,003
832,4	0,003
832,8	0,003
833,3	0,003
833,7	0,003
834,1	0,002
834,6	0,002
835	0,003
835,4	0,003
835,8	0,003
836,3	0,003
836,7	0,002
837,1	0,003
837,6	0,003
838	0,003
838,4	0,003
838,9	0,003
839,3	0,003
839,7	0,003
840,1	0,003
840,6	0,003
841	0,004
841,4	0,004
841,9	0,004
842,3	0,004
842,7	0,004
843,1	0,004
843,6	0,004
844	0,004
844,4	0,003
844,9	0,003
845,3	0,003
845,7	0,003
846,2	0,003
846,6	0,003
847	0,002
847,4	0,003
847,9	0,003
848,3	0,003
848,7	0,003
849,2	0,003
849,6	0,003
850	0,003
850,4	0,003
850,9	0,004
851,3	0,003
851,7	0,003
852,2	0,003
852,6	0,003
853	0,002
853,4	0,003
853,9	0,002
854,3	0,003
854,7	0,003
855,2	0,003
855,6	0,002
856	0,002
856,4	0,002
856,9	0,002
857,3	0,002
857,7	0,002
858,2	0,003
858,6	0,003
859	0,003
859,4	0,003
859,9	0,003
860,3	0,003
860,7	0,003
861,1	0,003
861,6	0,003
862	0,003
862,4	0,003
862,9	0,003
863,3	0,003
863,7	0,003
864,1	0,003
864,6	0,003
865	0,003
865,4	0,003
865,9	0,003
866,3	0,003
866,7	0,003
867,1	0,003
867,6	0,003
868	0,003
868,4	0,003
868,8	0,003
869,3	0,002
869,7	0,002
870,1	0,003
870,6	0,003
871	0,003
871,4	0,003
871,8	0,003
872,3	0,003
872,7	0,004
873,1	0,004
873,5	0,004
874	0,003
874,4	0,003
874,8	0,003
875,3	0,003
875,7	0,003
876,1	0,003
876,5	0,003
877	0,003
877,4	0,003
877,8	0,003
878,2	0,003
878,7	0,003
879,1	0,003
879,5	0,003
879,9	0,003
880,4	0,003
880,8	0,003
881,2	0,002
881,7	0,002
882,1	0,003
882,5	0,003
882,9	0,003
883,4	0,003
883,8	0,003
884,2	0,003
884,6	0,003
885,1	0,003
885,5	0,003
885,9	0,003
886,3	0,003
886,8	0,003
887,2	0,003
887,6	0,003
888	0,003
888,5	0,003
888,9	0,003
889,3	0,003
889,8	0,003
890,2	0,003
890,6	0,003
891	0,003
891,5	0,003
891,9	0,003
892,3	0,003
892,7	0,003
893,2	0,004
893,6	0,004
894	0,003
894,4	0,003
894,9	0,003
895,3	0,004
895,7	0,004
896,1	0,003
896,6	0,003
897	0,003
897,4	0,003
897,8	0,003
898,3	0,003
898,7	0,003
899,1	0,003
899,5	0,003
900	0,003
900,4	0,003
900,8	0,003
901,2	0,003
901,7	0,003
902,1	0,003
902,5	0,003
902,9	0,003
903,4	0,003
903,8	0,003
904,2	0,003
904,6	0,003
905,1	0,003
905,5	0,003
905,9	0,003
906,3	0,003
906,8	0,003
907,2	0,003
907,6	0,003
908	0,003
908,5	0,003
908,9	0,003
909,3	0,002
909,7	0,002
910,2	0,002
910,6	0,002
911	0,003
911,4	0,003
911,9	0,003
912,3	0,003
912,7	0,003
913,1	0,003
913,6	0,003
914	0,002
914,4	0,002
914,8	0,002
915,3	0,002
915,7	0,002
916,1	0,002
916,5	0,002
916,9	0,002
917,4	0,002
917,8	0,002
918,2	0,002
918,6	0,002
919,1	0,002
919,5	0,002
919,9	0,003
920,3	0,003
920,8	0,003
921,2	0,003
921,6	0,003
922	0,003
922,5	0,003
922,9	0,002
923,3	0,003
923,7	0,003
924,2	0,003
924,6	0,003
925	0,003
925,4	0,003
925,8	0,003
926,3	0,003
926,7	0,003
927,1	0,002
927,5	0,002
928	0,002
928,4	0,002
928,8	0,002
929,2	0,002
929,7	0,002
930,1	0,003
930,5	0,003
930,9	0,003
931,3	0,003
931,8	0,004
932,2	0,003
932,6	0,003
933	0,003
933,5	0,002
933,9	0,002
934,3	0,003
934,7	0,003
935,2	0,003
935,6	0,003
936	0,004
936,4	0,004
936,8	0,004
937,3	0,004
937,7	0,005
938,1	0,005
938,5	0,004
939	0,004
939,4	0,004
939,8	0,004
940,2	0,004
940,6	0,003
941,1	0,003
941,5	0,003
941,9	0,003
942,3	0,002
942,8	0,002
943,2	0,002
943,6	0,002
944	0,002
944,4	0,003
944,9	0,003
945,3	0,003
945,7	0,003
946,1	0,003
946,6	0,004
947	0,003
947,4	0,003
947,8	0,003
948,2	0,004
948,7	0,003
949,1	0,003
949,5	0,003
949,9	0,003
950,3	0,002
950,8	0,003
951,2	0,003
951,6	0,002
952	0,002
952,5	0,003
952,9	0,003
953,3	0,003
953,7	0,003
954,1	0,003
954,6	0,003
955	0,003
955,4	0,003
955,8	0,003
956,2	0,003
956,7	0,003
957,1	0,003
957,5	0,003
957,9	0,003
958,3	0,003
958,8	0,002
959,2	0,002
959,6	0,002
960	0,002
960,5	0,002
960,9	0,001
961,3	0,002
961,7	0,002
962,1	0,002
962,6	0,003
963	0,003
963,4	0,003
963,8	0,003
964,2	0,003
964,7	0,003
965,1	0,003
965,5	0,002
965,9	0,002
966,3	0,003
966,8	0,003
967,2	0,003
967,6	0,003
968	0,003
968,4	0,003
968,9	0,003
969,3	0,002
969,7	0,002
970,1	0,002
970,5	0,003
971	0,002
971,4	0,002
971,8	0,002
972,2	0,002
972,6	0,002
973,1	0,002
973,5	0,003
973,9	0,003
974,3	0,003
974,7	0,003
975,2	0,002
975,6	0,002
976	0,003
976,4	0,002
976,8	0,003
977,3	0,003
977,7	0,003
978,1	0,003
978,5	0,003
978,9	0,003
979,4	0,003
979,8	0,003
980,2	0,002
980,6	0,002
981	0,002
981,5	0,003
981,9	0,002
982,3	0,002
982,7	0,002
983,1	0,003
983,6	0,003
984	0,002
984,4	0,002
984,8	0,002
985,2	0,002
985,6	0,002
986,1	0,002
986,5	0,002
986,9	0,002
987,3	0,003
987,7	0,003
988,2	0,003
988,6	0,003
989	0,003
989,4	0,003
989,8	0,003
990,3	0,003
990,7	0,003
991,1	0,003
991,5	0,003
991,9	0,003
992,3	0,003
992,8	0,003
993,2	0,003
993,6	0,003
994	0,003
994,4	0,002
994,9	0,003
995,3	0,003
995,7	0,003
996,1	0,003
996,5	0,003
996,9	0,003
997,4	0,003
997,8	0,002
998,2	0,002
998,6	0,003
999	0,003
999,5	0,003
999,9	0,004
1000,3	0,004
1000,7	0,004
1001,1	0,004
1001,5	0,004
1002	0,004
1002,4	0,004
1002,8	0,004
1003,2	0,004
1003,6	0,004
1004	0,004
1004,5	0,005
1004,9	0,004
1005,3	0,005
1005,7	0,004
1006,1	0,005
1006,6	0,005
1007	0,005
1007,4	0,005
1007,8	0,004
1008,2	0,005
1008,6	0,004
1009,1	0,004
1009,5	0,004
1009,9	0,004
1010,3	0,003
1010,7	0,003
1011,1	0,003
1011,6	0,003
1012	0,003
1012,4	0,003
1012,8	0,004
1013,2	0,004
1013,6	0,005
1014,1	0,005
1014,5	0,005
1014,9	0,004
1015,3	0,005
1015,7	0,004
1016,1	0,004
1016,6	0,004
1017	0,004
1017,4	0,004
1017,8	0,004
1018,2	0,004
1018,6	0,004
1019,1	0,004
1019,5	0,003
1019,9	0,002
1020,3	0,002
1020,7	0,002
1021,1	0,003
1021,6	0,003
1022	0,003
1022,4	0,003
1022,8	0,005
1023,2	0,005
1023,6	0,005
1024,1	0,004
1024,5	0,003
1024,9	0,003
1025,3	0,003
1025,7	0,002
1026,1	0,002
1026,6	0,003
1027	0,003
1027,4	0,003
1027,8	0,004
1028,2	0,004
1028,6	0,004
1029	0,004
1029,5	0,004
1029,9	0,004
1030,3	0,004
1030,7	0,004
1031,1	0,003
1031,5	0,004
1032	0,003
1032,4	0,003
1032,8	0,003
1033,2	0,004
1033,6	0,003
1034	0,004
1034,4	0,004
1034,9	0,004
1035,3	0,004
1035,7	0,003
1036,1	0,004
1036,5	0,004
1036,9	0,005
1037,4	0,005
1037,8	0,005
1038,2	0,005
1038,6	0,006
1039	0,006
1039,4	0,005
1039,8	0,005
1040,3	0,004
1040,7	0,004
1041,1	0,004
1041,5	0,004
1041,9	0,004
1042,3	0,005
1042,7	0,005
1043,2	0,005
1043,6	0,005
1044	0,006
1044,4	0,006
1044,8	0,005
1045,2	0,005
1045,6	0,004
1046,1	0,004
1046,5	0,004
1046,9	0,003
1047,3	0,003
1047,7	0,003
1048,1	0,004
1048,5	0,004
1049	0,005
1049,4	0,005
1049,8	0,005
1050,2	0,005
1050,6	0,005
1051	0,005
1051,4	0,005
1051,9	0,005
1052,3	0,005
1052,7	0,006
1053,1	0,006
1053,5	0,005
1053,9	0,005
1054,3	0,004
1054,8	0,004
1055,2	0,004
1055,6	0,004
1056	0,004
1056,4	0,005
1056,8	0,005
1057,2	0,007
1057,6	0,006
1058,1	0,006
1058,5	0,006
1058,9	0,006
1059,3	0,006
1059,7	0,006
1060,1	0,006
1060,5	0,006
1061	0,006
1061,4	0,005
1061,8	0,005
1062,2	0,006
1062,6	0,006
1063	0,006
1063,4	0,006
1063,8	0,006
1064,3	0,007
1064,7	0,005
1065,1	0,006
1065,5	0,005
1065,9	0,004
1066,3	0,004
1066,7	0,005
1067,1	0,005
1067,6	0,005
1068	0,005
1068,4	0,005
1068,8	0,005
1069,2	0,005
1069,6	0,004
1070	0,005
1070,4	0,005
1070,9	0,005
1071,3	0,005
1071,7	0,005
1072,1	0,005
1072,5	0,006
1072,9	0,006
1073,3	0,005
1073,7	0,007
1074,2	0,008
1074,6	0,008
1075	0,008
1075,4	0,007
1075,8	0,008
1076,2	0,008
1076,6	0,007
1077	0,007
1077,5	0,006
1077,9	0,005
1078,3	0,005
1078,7	0,003
1079,1	0,003
1079,5	0,002
1079,9	0,002
1080,3	0,003
1080,7	0,005
1081,2	0,005
1081,6	0,005
1082	0,005
1082,4	0,007
1082,8	0,008
1083,2	0,007
1083,6	0,005
1084	0,007
1084,5	0,009
1084,9	0,009
1085,3	0,007
1085,7	0,006
1086,1	0,006
1086,5	0,009
1086,9	0,007
1087,3	0,009
1087,7	0,008
1088,2	0,01
1088,6	0,01
1089	0,011
1089,4	0,005
1089,8	0,006
1090,2	0,002
1090,6	0,002
1091	0,002
1091,4	0,005
1091,9	0,006
1092,3	0,009
1092,7	0,008
1093,1	0,012
1093,5	0,011
1093,9	0,01
1094,3	0,007
1094,7	0,005
1095,1	0,009
1095,5	0,008
1096	0,014
1096,4	0,017
1096,8	0,017
1097,2	0,016
1097,6	0,019
1098	0,015
1098,4	0,02
1098,8	0,019
1099,2	0,02
1099,6	0,027
1100,1	0,031
1100,5	0,033
1100,9	0,031
1101,3	0,028
1101,7	0,025
1102,1	0,027
1102,5	0,029
1102,9	0,036
1103,3	0,038
1103,7	0,045
1104,2	0,046
1104,6	0,047
1105	0,041
1105,4	0,034
1105,8	0,028
1106,2	0,018
1106,6	0,01
1107	0,015
1107,4	-0,008
1107,8	-0,02
1108,3	-0,599
