Data from Absorbance_103.txt Node
Date: Fri Nov 13 18:45:06 MSK 2020
User: vat
Spectrometer: MAYP114033
Trigger mode: 0
Integration Time (sec): 8,000000E-3
Scans to average: 10
Electric dark correction enabled: true
Nonlinearity correction enabled: false
Boxcar width: 3
XAxis mode: Wavelengths
Number of Pixels in Spectrum: 2068
>>>>>Begin Spectral Data<<<<<
199,4	0,338
199,9	0,127
200,4	0,023
200,8	0,042
201,3	0,016
201,8	0,032
202,2	0,034
202,7	0,034
203,2	0,023
203,6	0,036
204,1	0,041
204,6	0,042
205	0,027
205,5	0,043
206	0,044
206,4	0,044
206,9	0,04
207,4	0,028
207,8	0,042
208,3	0,048
208,8	0,034
209,2	0,024
209,7	0,014
210,2	0,014
210,6	0,02
211,1	0,016
211,5	0,013
212	0,011
212,5	0,014
212,9	0,041
213,4	0,034
213,9	0,035
214,3	0,037
214,8	0,02
215,3	0,026
215,7	0,031
216,2	0,015
216,7	0,011
217,1	0,016
217,6	0,013
218,1	0,02
218,5	0,008
219	0,005
219,5	0,02
219,9	0,03
220,4	0,028
220,9	0,03
221,3	0,028
221,8	0,039
222,3	0,042
222,7	0,036
223,2	0,046
223,6	0,04
224,1	0,037
224,6	0,068
225	0,082
225,5	0,082
226	0,094
226,4	0,085
226,9	0,089
227,4	0,086
227,8	0,071
228,3	0,064
228,8	0,07
229,2	0,065
229,7	0,064
230,2	0,058
230,6	0,055
231,1	0,074
231,5	0,057
232	0,057
232,5	0,053
232,9	0,062
233,4	0,075
233,9	0,071
234,3	0,052
234,8	0,069
235,3	0,062
235,7	0,061
236,2	0,065
236,7	0,063
237,1	0,076
237,6	0,083
238,1	0,082
238,5	0,087
239	0,091
239,4	0,091
239,9	0,097
240,4	0,097
240,8	0,112
241,3	0,117
241,8	0,13
242,2	0,141
242,7	0,137
243,2	0,127
243,6	0,142
244,1	0,135
244,6	0,14
245	0,137
245,5	0,133
245,9	0,146
246,4	0,16
246,9	0,147
247,3	0,148
247,8	0,16
248,3	0,163
248,7	0,167
249,2	0,174
249,7	0,177
250,1	0,184
250,6	0,187
251	0,181
251,5	0,184
252	0,185
252,4	0,189
252,9	0,192
253,4	0,199
253,8	0,201
254,3	0,207
254,8	0,211
255,2	0,216
255,7	0,219
256,1	0,225
256,6	0,227
257,1	0,233
257,5	0,238
258	0,245
258,5	0,251
258,9	0,258
259,4	0,265
259,9	0,272
260,3	0,279
260,8	0,287
261,2	0,295
261,7	0,303
262,2	0,312
262,6	0,319
263,1	0,328
263,6	0,338
264	0,347
264,5	0,354
264,9	0,363
265,4	0,371
265,9	0,379
266,3	0,388
266,8	0,397
267,3	0,405
267,7	0,414
268,2	0,423
268,7	0,431
269,1	0,442
269,6	0,451
270	0,461
270,5	0,471
271	0,479
271,4	0,487
271,9	0,497
272,4	0,505
272,8	0,514
273,3	0,52
273,7	0,528
274,2	0,536
274,7	0,544
275,1	0,551
275,6	0,557
276,1	0,563
276,5	0,57
277	0,577
277,4	0,583
277,9	0,588
278,4	0,594
278,8	0,599
279,3	0,603
279,8	0,606
280,2	0,61
280,7	0,612
281,1	0,614
281,6	0,614
282,1	0,614
282,5	0,615
283	0,615
283,4	0,615
283,9	0,613
284,4	0,61
284,8	0,609
285,3	0,607
285,8	0,603
286,2	0,6
286,7	0,595
287,1	0,591
287,6	0,586
288,1	0,58
288,5	0,573
289	0,566
289,5	0,558
289,9	0,549
290,4	0,541
290,8	0,531
291,3	0,522
291,8	0,512
292,2	0,502
292,7	0,491
293,1	0,479
293,6	0,467
294,1	0,456
294,5	0,444
295	0,431
295,5	0,419
295,9	0,407
296,4	0,394
296,8	0,382
297,3	0,369
297,8	0,356
298,2	0,344
298,7	0,331
299,1	0,318
299,6	0,306
300,1	0,294
300,5	0,282
301	0,271
301,5	0,259
301,9	0,248
302,4	0,237
302,8	0,226
303,3	0,216
303,8	0,205
304,2	0,195
304,7	0,186
305,1	0,177
305,6	0,168
306,1	0,16
306,5	0,152
307	0,144
307,4	0,137
307,9	0,13
308,4	0,124
308,8	0,118
309,3	0,112
309,8	0,106
310,2	0,101
310,7	0,096
311,1	0,091
311,6	0,086
312,1	0,082
312,5	0,078
313	0,074
313,4	0,07
313,9	0,067
314,4	0,063
314,8	0,06
315,3	0,057
315,7	0,054
316,2	0,052
316,7	0,049
317,1	0,047
317,6	0,046
318	0,044
318,5	0,042
319	0,041
319,4	0,039
319,9	0,038
320,3	0,037
320,8	0,035
321,3	0,034
321,7	0,033
322,2	0,032
322,6	0,031
323,1	0,03
323,6	0,029
324	0,029
324,5	0,028
324,9	0,027
325,4	0,027
325,9	0,027
326,3	0,026
326,8	0,026
327,2	0,025
327,7	0,025
328,2	0,025
328,6	0,024
329,1	0,024
329,5	0,023
330	0,023
330,5	0,022
330,9	0,022
331,4	0,022
331,8	0,022
332,3	0,022
332,8	0,021
333,2	0,021
333,7	0,021
334,1	0,021
334,6	0,021
335,1	0,021
335,5	0,02
336	0,02
336,4	0,02
336,9	0,02
337,4	0,02
337,8	0,019
338,3	0,019
338,7	0,02
339,2	0,02
339,7	0,02
340,1	0,019
340,6	0,019
341	0,02
341,5	0,019
342	0,019
342,4	0,019
342,9	0,019
343,3	0,019
343,8	0,019
344,2	0,018
344,7	0,018
345,2	0,019
345,6	0,019
346,1	0,019
346,5	0,019
347	0,02
347,5	0,02
347,9	0,02
348,4	0,019
348,8	0,019
349,3	0,019
349,8	0,018
350,2	0,018
350,7	0,018
351,1	0,017
351,6	0,018
352	0,018
352,5	0,018
353	0,018
353,4	0,018
353,9	0,018
354,3	0,018
354,8	0,018
355,3	0,018
355,7	0,018
356,2	0,017
356,6	0,017
357,1	0,018
357,5	0,018
358	0,017
358,5	0,017
358,9	0,017
359,4	0,017
359,8	0,017
360,3	0,016
360,8	0,017
361,2	0,017
361,7	0,017
362,1	0,017
362,6	0,017
363	0,017
363,5	0,017
364	0,017
364,4	0,016
364,9	0,016
365,3	0,017
365,8	0,017
366,3	0,017
366,7	0,016
367,2	0,016
367,6	0,016
368,1	0,016
368,5	0,015
369	0,015
369,5	0,015
369,9	0,015
370,4	0,015
370,8	0,015
371,3	0,015
371,7	0,015
372,2	0,015
372,7	0,015
373,1	0,014
373,6	0,015
374	0,015
374,5	0,015
374,9	0,015
375,4	0,015
375,9	0,015
376,3	0,015
376,8	0,015
377,2	0,014
377,7	0,014
378,2	0,014
378,6	0,013
379,1	0,014
379,5	0,014
380	0,013
380,4	0,013
380,9	0,013
381,4	0,013
381,8	0,013
382,3	0,013
382,7	0,013
383,2	0,013
383,6	0,014
384,1	0,013
384,6	0,013
385	0,014
385,5	0,013
385,9	0,013
386,4	0,013
386,8	0,013
387,3	0,014
387,7	0,014
388,2	0,014
388,7	0,014
389,1	0,014
389,6	0,014
390	0,013
390,5	0,013
390,9	0,013
391,4	0,013
391,9	0,013
392,3	0,013
392,8	0,013
393,2	0,013
393,7	0,013
394,1	0,012
394,6	0,012
395,1	0,013
395,5	0,012
396	0,013
396,4	0,012
396,9	0,012
397,3	0,012
397,8	0,011
398,2	0,011
398,7	0,012
399,2	0,012
399,6	0,011
400,1	0,012
400,5	0,012
401	0,012
401,4	0,012
401,9	0,011
402,4	0,011
402,8	0,011
403,3	0,011
403,7	0,01
404,2	0,01
404,6	0,01
405,1	0,011
405,5	0,011
406	0,011
406,5	0,01
406,9	0,01
407,4	0,01
407,8	0,01
408,3	0,01
408,7	0,01
409,2	0,01
409,6	0,01
410,1	0,01
410,6	0,01
411	0,011
411,5	0,011
411,9	0,011
412,4	0,011
412,8	0,011
413,3	0,011
413,7	0,011
414,2	0,011
414,7	0,011
415,1	0,011
415,6	0,011
416	0,011
416,5	0,011
416,9	0,011
417,4	0,011
417,8	0,011
418,3	0,011
418,8	0,011
419,2	0,011
419,7	0,01
420,1	0,011
420,6	0,01
421	0,011
421,5	0,01
421,9	0,011
422,4	0,011
422,8	0,011
423,3	0,011
423,8	0,011
424,2	0,011
424,7	0,01
425,1	0,01
425,6	0,01
426	0,01
426,5	0,01
426,9	0,01
427,4	0,01
427,9	0,01
428,3	0,01
428,8	0,01
429,2	0,01
429,7	0,009
430,1	0,01
430,6	0,01
431	0,01
431,5	0,01
431,9	0,011
432,4	0,011
432,8	0,011
433,3	0,011
433,8	0,011
434,2	0,011
434,7	0,01
435,1	0,01
435,6	0,009
436	0,009
436,5	0,009
436,9	0,009
437,4	0,009
437,8	0,009
438,3	0,009
438,8	0,009
439,2	0,009
439,7	0,009
440,1	0,009
440,6	0,01
441	0,01
441,5	0,01
441,9	0,01
442,4	0,01
442,8	0,01
443,3	0,01
443,7	0,01
444,2	0,01
444,7	0,01
445,1	0,01
445,6	0,01
446	0,011
446,5	0,01
446,9	0,01
447,4	0,01
447,8	0,01
448,3	0,01
448,7	0,01
449,2	0,009
449,6	0,009
450,1	0,009
450,6	0,009
451	0,009
451,5	0,009
451,9	0,009
452,4	0,009
452,8	0,009
453,3	0,009
453,7	0,009
454,2	0,009
454,6	0,009
455,1	0,009
455,5	0,009
456	0,009
456,4	0,009
456,9	0,008
457,3	0,009
457,8	0,008
458,3	0,008
458,7	0,008
459,2	0,008
459,6	0,008
460,1	0,008
460,5	0,009
461	0,009
461,4	0,009
461,9	0,009
462,3	0,008
462,8	0,009
463,2	0,009
463,7	0,009
464,1	0,008
464,6	0,008
465	0,008
465,5	0,008
466	0,008
466,4	0,008
466,9	0,008
467,3	0,008
467,8	0,009
468,2	0,008
468,7	0,009
469,1	0,009
469,6	0,008
470	0,008
470,5	0,008
470,9	0,008
471,4	0,008
471,8	0,009
472,3	0,009
472,7	0,009
473,2	0,009
473,6	0,009
474,1	0,008
474,5	0,008
475	0,008
475,4	0,008
475,9	0,008
476,4	0,008
476,8	0,008
477,3	0,008
477,7	0,008
478,2	0,008
478,6	0,008
479,1	0,009
479,5	0,009
480	0,009
480,4	0,009
480,9	0,009
481,3	0,009
481,8	0,008
482,2	0,008
482,7	0,008
483,1	0,008
483,6	0,008
484	0,008
484,5	0,008
484,9	0,008
485,4	0,008
485,8	0,008
486,3	0,008
486,7	0,008
487,2	0,008
487,6	0,008
488,1	0,008
488,5	0,008
489	0,008
489,4	0,007
489,9	0,007
490,4	0,007
490,8	0,007
491,3	0,007
491,7	0,008
492,2	0,008
492,6	0,008
493,1	0,008
493,5	0,009
494	0,008
494,4	0,008
494,9	0,008
495,3	0,007
495,8	0,007
496,2	0,007
496,7	0,007
497,1	0,007
497,6	0,008
498	0,008
498,5	0,007
498,9	0,007
499,4	0,007
499,8	0,007
500,3	0,007
500,7	0,007
501,2	0,007
501,6	0,007
502,1	0,007
502,5	0,007
503	0,007
503,4	0,007
503,9	0,008
504,3	0,007
504,8	0,008
505,2	0,008
505,7	0,008
506,1	0,008
506,6	0,007
507	0,006
507,5	0,006
507,9	0,006
508,4	0,005
508,8	0,006
509,3	0,006
509,7	0,007
510,2	0,007
510,6	0,007
511,1	0,007
511,5	0,007
512	0,006
512,4	0,006
512,9	0,006
513,3	0,006
513,8	0,006
514,2	0,006
514,7	0,006
515,1	0,007
515,6	0,006
516	0,006
516,5	0,006
516,9	0,007
517,4	0,007
517,8	0,007
518,3	0,007
518,7	0,007
519,2	0,007
519,6	0,007
520,1	0,007
520,5	0,007
521	0,007
521,4	0,007
521,9	0,007
522,3	0,007
522,8	0,007
523,2	0,006
523,7	0,006
524,1	0,006
524,6	0,006
525	0,006
525,5	0,005
525,9	0,005
526,4	0,006
526,8	0,005
527,3	0,005
527,7	0,005
528,2	0,005
528,6	0,006
529,1	0,005
529,5	0,005
530	0,006
530,4	0,005
530,9	0,005
531,3	0,005
531,8	0,005
532,2	0,005
532,6	0,005
533,1	0,005
533,5	0,005
534	0,005
534,4	0,005
534,9	0,005
535,3	0,006
535,8	0,005
536,2	0,005
536,7	0,006
537,1	0,006
537,6	0,007
538	0,007
538,5	0,007
538,9	0,007
539,4	0,007
539,8	0,007
540,3	0,006
540,7	0,006
541,2	0,006
541,6	0,006
542,1	0,005
542,5	0,005
543	0,005
543,4	0,005
543,9	0,005
544,3	0,005
544,8	0,005
545,2	0,004
545,7	0,005
546,1	0,005
546,5	0,005
547	0,004
547,4	0,004
547,9	0,004
548,3	0,004
548,8	0,004
549,2	0,004
549,7	0,004
550,1	0,004
550,6	0,004
551	0,004
551,5	0,004
551,9	0,004
552,4	0,004
552,8	0,004
553,3	0,004
553,7	0,004
554,2	0,004
554,6	0,004
555,1	0,004
555,5	0,004
555,9	0,004
556,4	0,004
556,8	0,004
557,3	0,004
557,7	0,004
558,2	0,004
558,6	0,004
559,1	0,004
559,5	0,004
560	0,004
560,4	0,004
560,9	0,004
561,3	0,004
561,8	0,003
562,2	0,004
562,7	0,004
563,1	0,003
563,6	0,003
564	0,003
564,4	0,003
564,9	0,003
565,3	0,003
565,8	0,003
566,2	0,003
566,7	0,003
567,1	0,003
567,6	0,003
568	0,003
568,5	0,004
568,9	0,004
569,4	0,004
569,8	0,004
570,3	0,004
570,7	0,004
571,1	0,004
571,6	0,003
572	0,003
572,5	0,003
572,9	0,003
573,4	0,003
573,8	0,003
574,3	0,003
574,7	0,003
575,2	0,003
575,6	0,003
576,1	0,003
576,5	0,003
576,9	0,003
577,4	0,003
577,8	0,003
578,3	0,003
578,7	0,003
579,2	0,003
579,6	0,003
580,1	0,003
580,5	0,003
581	0,003
581,4	0,003
581,9	0,004
582,3	0,004
582,7	0,003
583,2	0,003
583,6	0,004
584,1	0,003
584,5	0,003
585	0,003
585,4	0,003
585,9	0,003
586,3	0,003
586,8	0,003
587,2	0,003
587,6	0,003
588,1	0,003
588,5	0,003
589	0,003
589,4	0,003
589,9	0,003
590,3	0,003
590,8	0,003
591,2	0,003
591,7	0,003
592,1	0,003
592,5	0,003
593	0,003
593,4	0,003
593,9	0,003
594,3	0,003
594,8	0,002
595,2	0,003
595,7	0,003
596,1	0,002
596,6	0,002
597	0,003
597,4	0,002
597,9	0,002
598,3	0,002
598,8	0,002
599,2	0,002
599,7	0,002
600,1	0,002
600,6	0,003
601	0,002
601,4	0,002
601,9	0,002
602,3	0,003
602,8	0,003
603,2	0,003
603,7	0,002
604,1	0,002
604,6	0,003
605	0,002
605,4	0,002
605,9	0,002
606,3	0,002
606,8	0,002
607,2	0,003
607,7	0,002
608,1	0,002
608,6	0,002
609	0,001
609,4	0,002
609,9	0,001
610,3	0,001
610,8	0,001
611,2	0,001
611,7	0,001
612,1	0,002
612,6	0,002
613	0,002
613,4	0,002
613,9	0,002
614,3	0,002
614,8	0,002
615,2	0,002
615,7	0,002
616,1	0,002
616,6	0,002
617	0,002
617,4	0,002
617,9	0,002
618,3	0,002
618,8	0,002
619,2	0,002
619,7	0,002
620,1	0,002
620,5	0,002
621	0,002
621,4	0,002
621,9	0,002
622,3	0,002
622,8	0,002
623,2	0,002
623,6	0,002
624,1	0,002
624,5	0,002
625	0,001
625,4	0,002
625,9	0,002
626,3	0,002
626,8	0,002
627,2	0,003
627,6	0,003
628,1	0,003
628,5	0,003
629	0,003
629,4	0,003
629,9	0,003
630,3	0,002
630,7	0,003
631,2	0,002
631,6	0,002
632,1	0,002
632,5	0,002
633	0,002
633,4	0,002
633,8	0,002
634,3	0,002
634,7	0,002
635,2	0,002
635,6	0,002
636,1	0,002
636,5	0,002
636,9	0,002
637,4	0,002
637,8	0,001
638,3	0,001
638,7	0,001
639,2	0,001
639,6	0,001
640	0,001
640,5	0,002
640,9	0,002
641,4	0,003
641,8	0,002
642,2	0,002
642,7	0,003
643,1	0,002
643,6	0,002
644	0,002
644,5	0,002
644,9	0,002
645,3	0,002
645,8	0,001
646,2	0,002
646,7	0,002
647,1	0,001
647,6	0,001
648	0,001
648,4	0,001
648,9	0,001
649,3	0,001
649,8	0,001
650,2	0,002
650,6	0,001
651,1	0,002
651,5	0,002
652	0,002
652,4	0,002
652,9	0,001
653,3	0,001
653,7	0
654,2	0
654,6	0
655,1	-0
655,5	0
655,9	0
656,4	0
656,8	0,001
657,3	0,001
657,7	0,001
658,2	0,002
658,6	0,001
659	0
659,5	0
659,9	0
660,4	-0
660,8	0
661,2	0
661,7	0
662,1	0
662,6	0
663	0
663,4	0,001
663,9	0,001
664,3	0,001
664,8	0,001
665,2	0,001
665,6	0,001
666,1	0,001
666,5	0,001
667	0,001
667,4	0,001
667,9	0,001
668,3	0,001
668,7	0,001
669,2	0,001
669,6	0,001
670,1	0,001
670,5	0,001
670,9	0,001
671,4	0,001
671,8	0,001
672,3	0,001
672,7	0,002
673,1	0,002
673,6	0,001
674	0,001
674,5	0,001
674,9	0,001
675,3	0,001
675,8	0,002
676,2	0,002
676,7	0,002
677,1	0,002
677,5	0,001
678	0,001
678,4	0,001
678,9	0
679,3	0,001
679,7	0,001
680,2	0,001
680,6	0,001
681,1	0,001
681,5	0,001
681,9	0,001
682,4	0,001
682,8	0,001
683,3	0,002
683,7	0,001
684,1	0,001
684,6	0,001
685	0,001
685,5	0,001
685,9	0,001
686,3	0,001
686,8	0,001
687,2	0,001
687,7	0,001
688,1	0
688,5	0
689	0
689,4	0
689,9	0
690,3	0
690,7	0,001
691,2	0,001
691,6	0,001
692	0,001
692,5	0
692,9	0
693,4	0
693,8	0
694,2	0
694,7	0
695,1	0
695,6	0,001
696	0,001
696,4	0,001
696,9	0,001
697,3	0,001
697,8	0,001
698,2	0,001
698,6	0,002
699,1	0,002
699,5	0,002
699,9	0,002
700,4	0,002
700,8	0,001
701,3	0,001
701,7	0,001
702,1	0,001
702,6	0,001
703	0,001
703,5	0,001
703,9	0,001
704,3	0,001
704,8	0,001
705,2	0,001
705,6	0,001
706,1	0,001
706,5	0,002
707	0,002
707,4	0,001
707,8	0,001
708,3	0,001
708,7	0,001
709,2	0,001
709,6	0,001
710	0,001
710,5	0,001
710,9	0,001
711,3	0,001
711,8	0,001
712,2	0,002
712,7	0,002
713,1	0,002
713,5	0,002
714	0,002
714,4	0,002
714,8	0,002
715,3	0,002
715,7	0,002
716,2	0,001
716,6	0,001
717	0,001
717,5	0
717,9	0,001
718,3	0
718,8	0
719,2	0,001
719,7	0,002
720,1	0,001
720,5	0,001
721	0,002
721,4	0,001
721,8	0,002
722,3	0,001
722,7	0,001
723,2	0,001
723,6	0,001
724	0,001
724,5	0,001
724,9	0,001
725,3	0,001
725,8	0,001
726,2	0,001
726,7	0,001
727,1	0,001
727,5	0,001
728	0,001
728,4	0,001
728,8	0,001
729,3	0,001
729,7	0,001
730,1	0,001
730,6	0,001
731	0,001
731,5	0,001
731,9	0,001
732,3	0,001
732,8	0,001
733,2	0
733,6	0
734,1	0
734,5	0
734,9	0
735,4	0,001
735,8	0,001
736,3	0,001
736,7	0,001
737,1	0,001
737,6	0,002
738	0,002
738,4	0,001
738,9	0,001
739,3	0,001
739,7	0,001
740,2	0,001
740,6	0,001
741,1	0,001
741,5	0,001
741,9	0
742,4	0
742,8	0,001
743,2	0
743,7	-0
744,1	-0
744,5	-0
745	0
745,4	0
745,8	-0
746,3	-0
746,7	-0
747,2	0
747,6	0
748	0
748,5	0,001
748,9	0,001
749,3	0,001
749,8	0,001
750,2	0,001
750,6	0,001
751,1	0
751,5	0
751,9	0
752,4	0
752,8	0
753,3	0,001
753,7	0
754,1	0
754,6	0,001
755	0,001
755,4	0,001
755,9	0,001
756,3	0
756,7	0
757,2	0
757,6	0
758	0
758,5	0
758,9	0
759,3	0
759,8	0,001
760,2	0,001
760,6	0,001
761,1	0,001
761,5	0,001
761,9	0,001
762,4	0,001
762,8	0,001
763,3	0,001
763,7	0,001
764,1	0,001
764,6	0,001
765	0,001
765,4	0,001
765,9	0,001
766,3	0,001
766,7	0,001
767,2	0,001
767,6	0
768	0,001
768,5	0,001
768,9	0,001
769,3	0,001
769,8	0,001
770,2	0,001
770,6	0,001
771,1	0,001
771,5	0,001
771,9	0
772,4	0,001
772,8	0
773,2	0,001
773,7	0,001
774,1	0,001
774,5	0
775	0
775,4	-0
775,8	0
776,3	0
776,7	0
777,1	0
777,6	0,001
778	0
778,4	0,001
778,9	0,001
779,3	0,001
779,7	0,001
780,2	0,001
780,6	0,001
781	0,001
781,5	0,001
781,9	0,001
782,3	0
782,8	0
783,2	0
783,6	0
784,1	-0
784,5	-0
784,9	-0
785,4	0
785,8	-0
786,2	0
786,7	0
787,1	0,001
787,5	0,001
788	0,001
788,4	0,001
788,8	0,001
789,3	0,001
789,7	0,002
790,1	0,002
790,6	0,002
791	0,001
791,4	0,001
791,9	0,001
792,3	0,001
792,7	0,001
793,2	0,001
793,6	0,001
794	0,001
794,5	0,001
794,9	0,002
795,3	0,002
795,8	0,001
796,2	0,001
796,6	0,001
797,1	0,001
797,5	0,001
797,9	0,001
798,4	0,001
798,8	0,001
799,2	0,001
799,7	0
800,1	0
800,5	0,001
801	0,001
801,4	0,001
801,8	0,001
802,2	0,001
802,7	0,001
803,1	0,001
803,5	0,001
804	0
804,4	0,001
804,8	0
805,3	0,001
805,7	0
806,1	0
806,6	0
807	0
807,4	0
807,9	0,001
808,3	0,001
808,7	0,001
809,2	0,001
809,6	0,001
810	0,002
810,4	0,002
810,9	0,002
811,3	0,002
811,7	0,002
812,2	0,001
812,6	0,001
813	0,001
813,5	0
813,9	0
814,3	0
814,8	0
815,2	-0
815,6	-0
816,1	-0
816,5	-0
816,9	-0
817,3	0
817,8	0
818,2	0
818,6	0,001
819,1	0,001
819,5	0
819,9	0
820,4	0
820,8	-0
821,2	-0
821,7	-0
822,1	-0
822,5	-0,001
822,9	-0
823,4	-0
823,8	-0
824,2	0
824,7	0
825,1	0,001
825,5	0,001
826	0,001
826,4	0,001
826,8	0,001
827,3	0
827,7	0
828,1	-0
828,5	-0
829	-0
829,4	-0
829,8	-0
830,3	-0
830,7	-0
831,1	0
831,6	0
832	0,001
832,4	0,001
832,8	0,001
833,3	0,001
833,7	0,001
834,1	0,001
834,6	0
835	0
835,4	0
835,8	0
836,3	0
836,7	-0
837,1	-0
837,6	-0
838	-0
838,4	-0
838,9	0
839,3	0
839,7	0
840,1	0
840,6	0
841	0
841,4	0
841,9	0
842,3	0
842,7	0,001
843,1	0,001
843,6	0,001
844	0,001
844,4	0,001
844,9	0,001
845,3	0,001
845,7	0
846,2	-0
846,6	-0
847	-0,001
847,4	-0,001
847,9	-0,001
848,3	-0
848,7	-0
849,2	-0
849,6	0
850	0
850,4	0,001
850,9	0,001
851,3	0,001
851,7	0,001
852,2	0,001
852,6	0,001
853	0,002
853,4	0,001
853,9	0,001
854,3	0,001
854,7	0,001
855,2	0
855,6	0
856	0
856,4	0
856,9	0
857,3	0
857,7	0
858,2	0,001
858,6	0,001
859	0,001
859,4	0,001
859,9	0,001
860,3	0,001
860,7	0,001
861,1	0,001
861,6	0,001
862	0,001
862,4	0,001
862,9	0,001
863,3	0,001
863,7	0,001
864,1	0,001
864,6	0,001
865	0,001
865,4	0,001
865,9	0,001
866,3	0,001
866,7	0,001
867,1	0
867,6	0
868	0,001
868,4	0,001
868,8	0,001
869,3	0,001
869,7	0,001
870,1	0,001
870,6	0,001
871	0,002
871,4	0,001
871,8	0,001
872,3	0,001
872,7	0,001
873,1	0,001
873,5	0,001
874	0
874,4	0
874,8	0
875,3	0
875,7	-0
876,1	0
876,5	0
877	0
877,4	0,001
877,8	0,001
878,2	0,001
878,7	0,001
879,1	0,001
879,5	0,001
879,9	0,001
880,4	0,001
880,8	0,001
881,2	0,001
881,7	0,001
882,1	0,002
882,5	0,002
882,9	0,002
883,4	0,001
883,8	0,001
884,2	0,001
884,6	0,001
885,1	0,001
885,5	0,001
885,9	0
886,3	0
886,8	0
887,2	0
887,6	0
888	0,001
888,5	0,001
888,9	0,001
889,3	0,001
889,8	0,002
890,2	0,001
890,6	0,001
891	0,001
891,5	0,002
891,9	0,002
892,3	0,002
892,7	0,001
893,2	0,001
893,6	0,001
894	0,001
894,4	0,001
894,9	0,002
895,3	0,002
895,7	0,002
896,1	0,001
896,6	0,001
897	0,001
897,4	0,001
897,8	0,001
898,3	0
898,7	0
899,1	0
899,5	0,001
900	0
900,4	0,001
900,8	0
901,2	0
901,7	0
902,1	0
902,5	0
902,9	0,001
903,4	0,001
903,8	0,001
904,2	0
904,6	0,001
905,1	0,001
905,5	0,001
905,9	0,001
906,3	0,001
906,8	0,001
907,2	0,001
907,6	0,001
908	0,001
908,5	0,001
908,9	0,001
909,3	0,001
909,7	0,001
910,2	0,001
910,6	0,002
911	0,002
911,4	0,002
911,9	0,002
912,3	0,003
912,7	0,002
913,1	0,002
913,6	0,002
914	0,001
914,4	0,001
914,8	0
915,3	-0
915,7	-0
916,1	-0
916,5	-0
916,9	-0
917,4	-0
917,8	-0
918,2	-0
918,6	-0
919,1	-0
919,5	-0
919,9	-0
920,3	0
920,8	0,001
921,2	0,001
921,6	0,001
922	0,001
922,5	0,001
922,9	0,002
923,3	0,002
923,7	0,002
924,2	0,002
924,6	0,001
925	0,001
925,4	0,001
925,8	0,001
926,3	0,001
926,7	0,001
927,1	0
927,5	0,001
928	0,001
928,4	0,001
928,8	0,001
929,2	0,001
929,7	0,002
930,1	0,002
930,5	0,002
930,9	0,001
931,3	0,001
931,8	0,002
932,2	0,001
932,6	0,001
933	0,002
933,5	0,002
933,9	0,002
934,3	0,002
934,7	0,002
935,2	0,002
935,6	0,002
936	0,001
936,4	0,002
936,8	0,001
937,3	0,001
937,7	0,001
938,1	0,002
938,5	0,002
939	0,001
939,4	0,001
939,8	0,001
940,2	0,001
940,6	0,001
941,1	0
941,5	0,001
941,9	0,001
942,3	0,001
942,8	0,001
943,2	0,001
943,6	0,002
944	0,002
944,4	0,002
944,9	0,002
945,3	0,001
945,7	0,001
946,1	0,001
946,6	0,001
947	0,001
947,4	0,001
947,8	0
948,2	0
948,7	0,001
949,1	0,001
949,5	0,001
949,9	0,001
950,3	0,001
950,8	0,001
951,2	0,001
951,6	0,001
952	0,001
952,5	0,001
952,9	0,001
953,3	0,001
953,7	0,001
954,1	0,001
954,6	0,002
955	0,001
955,4	0,001
955,8	0,001
956,2	0,002
956,7	0,001
957,1	0,001
957,5	0,001
957,9	0,001
958,3	0,002
958,8	0,001
959,2	0,002
959,6	0,002
960	0,002
960,5	0,002
960,9	0,002
961,3	0,002
961,7	0,002
962,1	0,002
962,6	0,002
963	0,002
963,4	0,002
963,8	0,003
964,2	0,003
964,7	0,003
965,1	0,003
965,5	0,002
965,9	0,002
966,3	0,002
966,8	0,002
967,2	0,002
967,6	0,001
968	0,001
968,4	0,001
968,9	0,001
969,3	0,002
969,7	0,002
970,1	0,001
970,5	0,001
971	0,001
971,4	0,001
971,8	0,001
972,2	0
972,6	0
973,1	0
973,5	0
973,9	-0
974,3	0
974,7	-0
975,2	0
975,6	0
976	0
976,4	0,001
976,8	0,001
977,3	0,001
977,7	0,001
978,1	0,001
978,5	0,001
978,9	0,001
979,4	0,001
979,8	0,001
980,2	0,001
980,6	0,002
981	0,002
981,5	0,001
981,9	0,001
982,3	0,001
982,7	0,001
983,1	0
983,6	0
984	0,001
984,4	0,001
984,8	0,001
985,2	0,001
985,6	0,001
986,1	0,001
986,5	0,001
986,9	0,001
987,3	0,001
987,7	0,001
988,2	0,002
988,6	0,002
989	0,002
989,4	0,002
989,8	0,002
990,3	0,002
990,7	0,001
991,1	0,001
991,5	0,001
991,9	0
992,3	0,001
992,8	0
993,2	0
993,6	0
994	0,001
994,4	0,001
994,9	0,001
995,3	0,001
995,7	0,001
996,1	0,001
996,5	0,002
996,9	0,002
997,4	0,002
997,8	0,002
998,2	0,001
998,6	0,001
999	0
999,5	0
999,9	-0
1000,3	0
1000,7	0
1001,1	0,001
1001,5	0,001
1002	0,001
1002,4	0,001
1002,8	0,001
1003,2	0,002
1003,6	0,001
1004	0,001
1004,5	0,001
1004,9	0,001
1005,3	0,001
1005,7	0,001
1006,1	0,001
1006,6	0,001
1007	0,001
1007,4	0,001
1007,8	0,001
1008,2	0
1008,6	0
1009,1	0
1009,5	0
1009,9	0,001
1010,3	0
1010,7	0,001
1011,1	0,002
1011,6	0,001
1012	0,002
1012,4	0,002
1012,8	0,002
1013,2	0,002
1013,6	0,002
1014,1	0,002
1014,5	0,002
1014,9	0,001
1015,3	0,002
1015,7	0,002
1016,1	0,002
1016,6	0,002
1017	0,002
1017,4	0,002
1017,8	0,002
1018,2	0,001
1018,6	0,001
1019,1	0
1019,5	-0
1019,9	-0,001
1020,3	-0,001
1020,7	-0,001
1021,1	-0,001
1021,6	-0,001
1022	-0,001
1022,4	-0
1022,8	0
1023,2	0,002
1023,6	0,002
1024,1	0,002
1024,5	0,001
1024,9	0,002
1025,3	0,001
1025,7	0,001
1026,1	0
1026,6	-0
1027	-0
1027,4	-0
1027,8	-0,001
1028,2	-0
1028,6	-0,001
1029	-0,001
1029,5	-0,001
1029,9	-0
1030,3	0,001
1030,7	0,001
1031,1	0,001
1031,5	0,001
1032	0,001
1032,4	0,001
1032,8	0,001
1033,2	0,001
1033,6	-0,001
1034	-0,001
1034,4	-0,001
1034,9	-0,002
1035,3	-0,001
1035,7	-0,002
1036,1	-0,002
1036,5	-0,001
1036,9	-0,001
1037,4	-0
1037,8	0
1038,2	0,001
1038,6	0,002
1039	0,002
1039,4	0,001
1039,8	0,001
1040,3	0,001
1040,7	0,001
1041,1	0
1041,5	0,001
1041,9	0,001
1042,3	0,001
1042,7	0,001
1043,2	0
1043,6	0
1044	-0
1044,4	-0,001
1044,8	-0,001
1045,2	-0,001
1045,6	-0,001
1046,1	0
1046,5	0,001
1046,9	0,001
1047,3	0,001
1047,7	0
1048,1	-0
1048,5	-0
1049	-0
1049,4	-0,002
1049,8	-0,001
1050,2	-0,002
1050,6	-0
1051	0
1051,4	0
1051,9	-0
1052,3	0,001
1052,7	0,001
1053,1	0,002
1053,5	0,001
1053,9	0,001
1054,3	0,001
1054,8	0,002
1055,2	0,002
1055,6	0,002
1056	0,001
1056,4	0,001
1056,8	0
1057,2	-0
1057,6	-0
1058,1	-0,001
1058,5	-0,001
1058,9	-0,001
1059,3	0
1059,7	0,001
1060,1	0,001
1060,5	0,001
1061	0,001
1061,4	0,001
1061,8	0,002
1062,2	0
1062,6	0
1063	0
1063,4	-0
1063,8	-0
1064,3	-0
1064,7	-0,002
1065,1	-0,001
1065,5	-0,001
1065,9	-0,001
1066,3	-0,001
1066,7	-0,001
1067,1	-0
1067,6	0
1068	-0
1068,4	-0,001
1068,8	-0,001
1069,2	-0,001
1069,6	-0
1070	-0,001
1070,4	-0
1070,9	0
1071,3	-0
1071,7	0,001
1072,1	0
1072,5	-0
1072,9	-0,001
1073,3	-0,001
1073,7	-0,001
1074,2	0,001
1074,6	-0
1075	-0
1075,4	-0
1075,8	-0
1076,2	-0,001
1076,6	-0
1077	-0,001
1077,5	-0,001
1077,9	-0,001
1078,3	-0,001
1078,7	-0
1079,1	-0
1079,5	-0,002
1079,9	-0,001
1080,3	-0,001
1080,7	0
1081,2	0,001
1081,6	-0
1082	0
1082,4	0,004
1082,8	0,002
1083,2	0,002
1083,6	0,001
1084	0
1084,5	0
1084,9	0,001
1085,3	-0,002
1085,7	-0,003
1086,1	-0,003
1086,5	-0,002
1086,9	-0,001
1087,3	0,001
1087,7	0,001
1088,2	0,002
1088,6	0,005
1089	0,005
1089,4	0,003
1089,8	0,005
1090,2	0,002
1090,6	0,001
1091	0
1091,4	-0,004
1091,9	-0,005
1092,3	-0,004
1092,7	-0,004
1093,1	-0,001
1093,5	-0,004
1093,9	0,001
1094,3	0,001
1094,7	0,001
1095,1	0,003
1095,5	0
1096	-0
1096,4	-0,002
1096,8	-0,006
1097,2	-0,003
1097,6	-0,001
1098	-0,005
1098,4	-0,004
1098,8	-0,007
1099,2	-0,004
1099,6	0,003
1100,1	0,003
1100,5	-0,001
1100,9	0,004
1101,3	-0
1101,7	0,002
1102,1	0,013
1102,5	0,003
1102,9	0
1103,3	-0,004
1103,7	-0,005
1104,2	-0,004
1104,6	-0,003
1105	-0,019
1105,4	-0,017
1105,8	-0,011
1106,2	0,004
1106,6	-0
1107	0
1107,4	0,003
1107,8	0,04
1108,3	-0
