Data from Absorbance_234.txt Node
Date: Fri Nov 13 21:30:05 MSK 2020
User: vat
Spectrometer: MAYP114033
Trigger mode: 0
Integration Time (sec): 8,000000E-3
Scans to average: 10
Electric dark correction enabled: true
Nonlinearity correction enabled: false
Boxcar width: 3
XAxis mode: Wavelengths
Number of Pixels in Spectrum: 2068
>>>>>Begin Spectral Data<<<<<
199,4	-0,624
199,9	-0
200,4	0,244
200,8	0,212
201,3	0,117
201,8	0,117
202,2	0,107
202,7	0,114
203,2	0,101
203,6	0,118
204,1	0,112
204,6	0,105
205	0,107
205,5	0,132
206	0,132
206,4	0,154
206,9	0,156
207,4	0,175
207,8	0,19
208,3	0,185
208,8	0,198
209,2	0,197
209,7	0,18
210,2	0,179
210,6	0,19
211,1	0,164
211,5	0,174
212	0,162
212,5	0,174
212,9	0,174
213,4	0,175
213,9	0,158
214,3	0,181
214,8	0,187
215,3	0,188
215,7	0,175
216,2	0,174
216,7	0,176
217,1	0,177
217,6	0,176
218,1	0,171
218,5	0,162
219	0,191
219,5	0,212
219,9	0,233
220,4	0,224
220,9	0,203
221,3	0,209
221,8	0,204
222,3	0,187
222,7	0,177
223,2	0,171
223,6	0,179
224,1	0,19
224,6	0,191
225	0,197
225,5	0,192
226	0,178
226,4	0,154
226,9	0,154
227,4	0,172
227,8	0,178
228,3	0,204
228,8	0,206
229,2	0,215
229,7	0,224
230,2	0,225
230,6	0,229
231,1	0,245
231,5	0,214
232	0,21
232,5	0,231
232,9	0,234
233,4	0,25
233,9	0,252
234,3	0,231
234,8	0,232
235,3	0,255
235,7	0,248
236,2	0,248
236,7	0,241
237,1	0,235
237,6	0,227
238,1	0,239
238,5	0,222
239	0,207
239,4	0,208
239,9	0,204
240,4	0,192
240,8	0,213
241,3	0,216
241,8	0,226
242,2	0,255
242,7	0,261
243,2	0,268
243,6	0,287
244,1	0,282
244,6	0,301
245	0,319
245,5	0,324
245,9	0,341
246,4	0,351
246,9	0,354
247,3	0,386
247,8	0,389
248,3	0,379
248,7	0,384
249,2	0,402
249,7	0,405
250,1	0,416
250,6	0,413
251	0,432
251,5	0,449
252	0,454
252,4	0,461
252,9	0,472
253,4	0,479
253,8	0,488
254,3	0,495
254,8	0,503
255,2	0,513
255,7	0,526
256,1	0,538
256,6	0,55
257,1	0,564
257,5	0,577
258	0,592
258,5	0,609
258,9	0,623
259,4	0,64
259,9	0,659
260,3	0,677
260,8	0,695
261,2	0,715
261,7	0,735
262,2	0,755
262,6	0,775
263,1	0,796
263,6	0,818
264	0,839
264,5	0,861
264,9	0,882
265,4	0,903
265,9	0,924
266,3	0,945
266,8	0,965
267,3	0,986
267,7	1,007
268,2	1,029
268,7	1,053
269,1	1,076
269,6	1,096
270	1,121
270,5	1,141
271	1,164
271,4	1,187
271,9	1,206
272,4	1,226
272,8	1,246
273,3	1,265
273,7	1,285
274,2	1,304
274,7	1,319
275,1	1,337
275,6	1,353
276,1	1,37
276,5	1,383
277	1,398
277,4	1,411
277,9	1,425
278,4	1,438
278,8	1,449
279,3	1,46
279,8	1,472
280,2	1,481
280,7	1,485
281,1	1,492
281,6	1,494
282,1	1,496
282,5	1,497
283	1,497
283,4	1,495
283,9	1,493
284,4	1,486
284,8	1,482
285,3	1,478
285,8	1,471
286,2	1,46
286,7	1,452
287,1	1,439
287,6	1,426
288,1	1,412
288,5	1,396
289	1,378
289,5	1,36
289,9	1,341
290,4	1,321
290,8	1,301
291,3	1,279
291,8	1,256
292,2	1,231
292,7	1,207
293,1	1,18
293,6	1,153
294,1	1,125
294,5	1,096
295	1,067
295,5	1,038
295,9	1,007
296,4	0,977
296,8	0,946
297,3	0,916
297,8	0,886
298,2	0,854
298,7	0,824
299,1	0,795
299,6	0,764
300,1	0,735
300,5	0,705
301	0,677
301,5	0,649
301,9	0,621
302,4	0,593
302,8	0,568
303,3	0,542
303,8	0,517
304,2	0,493
304,7	0,47
305,1	0,448
305,6	0,428
306,1	0,406
306,5	0,387
307	0,368
307,4	0,35
307,9	0,333
308,4	0,317
308,8	0,301
309,3	0,287
309,8	0,272
310,2	0,259
310,7	0,246
311,1	0,234
311,6	0,223
312,1	0,212
312,5	0,202
313	0,192
313,4	0,183
313,9	0,174
314,4	0,166
314,8	0,159
315,3	0,152
315,7	0,146
316,2	0,14
316,7	0,135
317,1	0,13
317,6	0,125
318	0,121
318,5	0,116
319	0,112
319,4	0,108
319,9	0,105
320,3	0,102
320,8	0,099
321,3	0,096
321,7	0,093
322,2	0,091
322,6	0,089
323,1	0,087
323,6	0,086
324	0,085
324,5	0,083
324,9	0,081
325,4	0,08
325,9	0,078
326,3	0,077
326,8	0,075
327,2	0,074
327,7	0,073
328,2	0,071
328,6	0,07
329,1	0,069
329,5	0,068
330	0,068
330,5	0,068
330,9	0,067
331,4	0,067
331,8	0,067
332,3	0,067
332,8	0,066
333,2	0,066
333,7	0,066
334,1	0,065
334,6	0,064
335,1	0,064
335,5	0,063
336	0,063
336,4	0,063
336,9	0,062
337,4	0,061
337,8	0,061
338,3	0,061
338,7	0,061
339,2	0,06
339,7	0,06
340,1	0,059
340,6	0,059
341	0,059
341,5	0,058
342	0,058
342,4	0,058
342,9	0,057
343,3	0,057
343,8	0,057
344,2	0,057
344,7	0,057
345,2	0,057
345,6	0,057
346,1	0,057
346,5	0,056
347	0,056
347,5	0,056
347,9	0,056
348,4	0,055
348,8	0,055
349,3	0,055
349,8	0,055
350,2	0,054
350,7	0,054
351,1	0,054
351,6	0,054
352	0,054
352,5	0,054
353	0,054
353,4	0,053
353,9	0,053
354,3	0,052
354,8	0,052
355,3	0,052
355,7	0,051
356,2	0,051
356,6	0,051
357,1	0,051
357,5	0,051
358	0,051
358,5	0,051
358,9	0,051
359,4	0,051
359,8	0,051
360,3	0,051
360,8	0,051
361,2	0,05
361,7	0,05
362,1	0,05
362,6	0,05
363	0,05
363,5	0,05
364	0,049
364,4	0,049
364,9	0,049
365,3	0,048
365,8	0,048
366,3	0,048
366,7	0,047
367,2	0,048
367,6	0,048
368,1	0,048
368,5	0,048
369	0,047
369,5	0,047
369,9	0,047
370,4	0,046
370,8	0,046
371,3	0,045
371,7	0,045
372,2	0,045
372,7	0,045
373,1	0,045
373,6	0,044
374	0,044
374,5	0,044
374,9	0,044
375,4	0,044
375,9	0,044
376,3	0,044
376,8	0,044
377,2	0,044
377,7	0,043
378,2	0,043
378,6	0,043
379,1	0,042
379,5	0,042
380	0,042
380,4	0,041
380,9	0,041
381,4	0,041
381,8	0,041
382,3	0,04
382,7	0,04
383,2	0,041
383,6	0,041
384,1	0,041
384,6	0,041
385	0,04
385,5	0,04
385,9	0,04
386,4	0,039
386,8	0,039
387,3	0,039
387,7	0,038
388,2	0,038
388,7	0,038
389,1	0,038
389,6	0,038
390	0,038
390,5	0,038
390,9	0,038
391,4	0,038
391,9	0,037
392,3	0,037
392,8	0,036
393,2	0,037
393,7	0,037
394,1	0,036
394,6	0,036
395,1	0,036
395,5	0,036
396	0,036
396,4	0,036
396,9	0,036
397,3	0,036
397,8	0,036
398,2	0,035
398,7	0,035
399,2	0,035
399,6	0,035
400,1	0,035
400,5	0,035
401	0,035
401,4	0,035
401,9	0,035
402,4	0,035
402,8	0,035
403,3	0,035
403,7	0,035
404,2	0,035
404,6	0,035
405,1	0,034
405,5	0,034
406	0,034
406,5	0,033
406,9	0,034
407,4	0,034
407,8	0,033
408,3	0,033
408,7	0,033
409,2	0,033
409,6	0,033
410,1	0,033
410,6	0,033
411	0,033
411,5	0,033
411,9	0,033
412,4	0,033
412,8	0,033
413,3	0,033
413,7	0,032
414,2	0,032
414,7	0,032
415,1	0,031
415,6	0,032
416	0,032
416,5	0,032
416,9	0,032
417,4	0,032
417,8	0,032
418,3	0,032
418,8	0,032
419,2	0,032
419,7	0,033
420,1	0,032
420,6	0,032
421	0,032
421,5	0,031
421,9	0,031
422,4	0,031
422,8	0,031
423,3	0,031
423,8	0,031
424,2	0,031
424,7	0,031
425,1	0,031
425,6	0,031
426	0,031
426,5	0,031
426,9	0,031
427,4	0,031
427,9	0,031
428,3	0,031
428,8	0,03
429,2	0,03
429,7	0,03
430,1	0,029
430,6	0,029
431	0,029
431,5	0,029
431,9	0,029
432,4	0,029
432,8	0,029
433,3	0,029
433,8	0,029
434,2	0,029
434,7	0,029
435,1	0,029
435,6	0,029
436	0,029
436,5	0,029
436,9	0,03
437,4	0,03
437,8	0,03
438,3	0,029
438,8	0,029
439,2	0,029
439,7	0,028
440,1	0,027
440,6	0,027
441	0,027
441,5	0,027
441,9	0,027
442,4	0,027
442,8	0,027
443,3	0,027
443,7	0,028
444,2	0,028
444,7	0,028
445,1	0,028
445,6	0,028
446	0,028
446,5	0,028
446,9	0,028
447,4	0,028
447,8	0,028
448,3	0,027
448,7	0,028
449,2	0,028
449,6	0,028
450,1	0,027
450,6	0,027
451	0,028
451,5	0,028
451,9	0,027
452,4	0,028
452,8	0,027
453,3	0,027
453,7	0,027
454,2	0,026
454,6	0,027
455,1	0,026
455,5	0,026
456	0,026
456,4	0,026
456,9	0,026
457,3	0,026
457,8	0,026
458,3	0,025
458,7	0,025
459,2	0,025
459,6	0,025
460,1	0,025
460,5	0,025
461	0,025
461,4	0,026
461,9	0,026
462,3	0,026
462,8	0,026
463,2	0,026
463,7	0,026
464,1	0,026
464,6	0,026
465	0,025
465,5	0,025
466	0,025
466,4	0,025
466,9	0,024
467,3	0,024
467,8	0,024
468,2	0,024
468,7	0,024
469,1	0,024
469,6	0,024
470	0,024
470,5	0,024
470,9	0,024
471,4	0,024
471,8	0,024
472,3	0,023
472,7	0,024
473,2	0,024
473,6	0,024
474,1	0,024
474,5	0,024
475	0,023
475,4	0,023
475,9	0,023
476,4	0,023
476,8	0,023
477,3	0,023
477,7	0,023
478,2	0,023
478,6	0,024
479,1	0,023
479,5	0,024
480	0,024
480,4	0,024
480,9	0,024
481,3	0,024
481,8	0,023
482,2	0,024
482,7	0,024
483,1	0,024
483,6	0,025
484	0,026
484,5	0,025
484,9	0,024
485,4	0,023
485,8	0,023
486,3	0,022
486,7	0,021
487,2	0,02
487,6	0,019
488,1	0,02
488,5	0,021
489	0,021
489,4	0,021
489,9	0,021
490,4	0,021
490,8	0,021
491,3	0,022
491,7	0,022
492,2	0,021
492,6	0,021
493,1	0,021
493,5	0,021
494	0,021
494,4	0,021
494,9	0,021
495,3	0,021
495,8	0,021
496,2	0,022
496,7	0,022
497,1	0,021
497,6	0,021
498	0,021
498,5	0,021
498,9	0,021
499,4	0,021
499,8	0,021
500,3	0,021
500,7	0,02
501,2	0,02
501,6	0,02
502,1	0,02
502,5	0,02
503	0,02
503,4	0,02
503,9	0,021
504,3	0,02
504,8	0,02
505,2	0,02
505,7	0,019
506,1	0,019
506,6	0,019
507	0,02
507,5	0,02
507,9	0,02
508,4	0,02
508,8	0,02
509,3	0,02
509,7	0,02
510,2	0,02
510,6	0,02
511,1	0,02
511,5	0,02
512	0,019
512,4	0,02
512,9	0,019
513,3	0,02
513,8	0,019
514,2	0,019
514,7	0,019
515,1	0,019
515,6	0,019
516	0,019
516,5	0,018
516,9	0,019
517,4	0,018
517,8	0,019
518,3	0,019
518,7	0,019
519,2	0,018
519,6	0,019
520,1	0,019
520,5	0,019
521	0,019
521,4	0,019
521,9	0,019
522,3	0,019
522,8	0,019
523,2	0,019
523,7	0,02
524,1	0,019
524,6	0,019
525	0,019
525,5	0,019
525,9	0,018
526,4	0,018
526,8	0,017
527,3	0,018
527,7	0,019
528,2	0,018
528,6	0,018
529,1	0,018
529,5	0,019
530	0,019
530,4	0,018
530,9	0,018
531,3	0,018
531,8	0,018
532,2	0,017
532,6	0,016
533,1	0,017
533,5	0,016
534	0,017
534,4	0,016
534,9	0,016
535,3	0,017
535,8	0,017
536,2	0,017
536,7	0,017
537,1	0,017
537,6	0,017
538	0,016
538,5	0,017
538,9	0,017
539,4	0,016
539,8	0,016
540,3	0,017
540,7	0,017
541,2	0,017
541,6	0,017
542,1	0,017
542,5	0,016
543	0,016
543,4	0,015
543,9	0,016
544,3	0,015
544,8	0,015
545,2	0,015
545,7	0,015
546,1	0,016
546,5	0,016
547	0,016
547,4	0,016
547,9	0,016
548,3	0,015
548,8	0,015
549,2	0,015
549,7	0,015
550,1	0,015
550,6	0,015
551	0,016
551,5	0,016
551,9	0,015
552,4	0,015
552,8	0,015
553,3	0,015
553,7	0,015
554,2	0,015
554,6	0,015
555,1	0,015
555,5	0,015
555,9	0,014
556,4	0,015
556,8	0,014
557,3	0,014
557,7	0,013
558,2	0,014
558,6	0,014
559,1	0,014
559,5	0,014
560	0,014
560,4	0,014
560,9	0,014
561,3	0,014
561,8	0,014
562,2	0,014
562,7	0,014
563,1	0,014
563,6	0,014
564	0,013
564,4	0,013
564,9	0,014
565,3	0,014
565,8	0,014
566,2	0,014
566,7	0,014
567,1	0,014
567,6	0,015
568	0,014
568,5	0,014
568,9	0,014
569,4	0,013
569,8	0,013
570,3	0,013
570,7	0,013
571,1	0,012
571,6	0,013
572	0,013
572,5	0,013
572,9	0,013
573,4	0,012
573,8	0,012
574,3	0,012
574,7	0,012
575,2	0,012
575,6	0,012
576,1	0,012
576,5	0,012
576,9	0,012
577,4	0,012
577,8	0,012
578,3	0,012
578,7	0,012
579,2	0,012
579,6	0,013
580,1	0,013
580,5	0,012
581	0,012
581,4	0,011
581,9	0,011
582,3	0,01
582,7	0,01
583,2	0,01
583,6	0,011
584,1	0,011
584,5	0,011
585	0,011
585,4	0,011
585,9	0,011
586,3	0,01
586,8	0,01
587,2	0,01
587,6	0,01
588,1	0,01
588,5	0,01
589	0,01
589,4	0,01
589,9	0,01
590,3	0,01
590,8	0,011
591,2	0,011
591,7	0,011
592,1	0,011
592,5	0,011
593	0,011
593,4	0,011
593,9	0,01
594,3	0,01
594,8	0,01
595,2	0,009
595,7	0,009
596,1	0,009
596,6	0,009
597	0,01
597,4	0,01
597,9	0,01
598,3	0,01
598,8	0,01
599,2	0,01
599,7	0,01
600,1	0,01
600,6	0,009
601	0,01
601,4	0,01
601,9	0,01
602,3	0,01
602,8	0,009
603,2	0,009
603,7	0,009
604,1	0,009
604,6	0,009
605	0,009
605,4	0,009
605,9	0,009
606,3	0,009
606,8	0,009
607,2	0,009
607,7	0,009
608,1	0,01
608,6	0,01
609	0,01
609,4	0,01
609,9	0,01
610,3	0,01
610,8	0,01
611,2	0,01
611,7	0,01
612,1	0,01
612,6	0,01
613	0,01
613,4	0,009
613,9	0,009
614,3	0,009
614,8	0,009
615,2	0,009
615,7	0,009
616,1	0,009
616,6	0,009
617	0,009
617,4	0,009
617,9	0,01
618,3	0,01
618,8	0,009
619,2	0,009
619,7	0,009
620,1	0,009
620,5	0,009
621	0,009
621,4	0,008
621,9	0,009
622,3	0,009
622,8	0,009
623,2	0,008
623,6	0,008
624,1	0,008
624,5	0,008
625	0,008
625,4	0,008
625,9	0,009
626,3	0,009
626,8	0,009
627,2	0,009
627,6	0,009
628,1	0,009
628,5	0,009
629	0,009
629,4	0,009
629,9	0,009
630,3	0,009
630,7	0,009
631,2	0,009
631,6	0,009
632,1	0,009
632,5	0,009
633	0,009
633,4	0,008
633,8	0,008
634,3	0,008
634,7	0,008
635,2	0,008
635,6	0,008
636,1	0,008
636,5	0,008
636,9	0,008
637,4	0,008
637,8	0,008
638,3	0,008
638,7	0,008
639,2	0,008
639,6	0,007
640	0,007
640,5	0,008
640,9	0,008
641,4	0,008
641,8	0,008
642,2	0,008
642,7	0,008
643,1	0,009
643,6	0,009
644	0,008
644,5	0,008
644,9	0,008
645,3	0,008
645,8	0,008
646,2	0,007
646,7	0,007
647,1	0,007
647,6	0,007
648	0,008
648,4	0,008
648,9	0,008
649,3	0,009
649,8	0,009
650,2	0,009
650,6	0,009
651,1	0,008
651,5	0,008
652	0,008
652,4	0,008
652,9	0,009
653,3	0,011
653,7	0,017
654,2	0,011
654,6	0,008
655,1	0,006
655,5	0,003
655,9	0,003
656,4	0,002
656,8	-0,002
657,3	-0,002
657,7	-0,002
658,2	-0,002
658,6	0,005
659	0,007
659,5	0,007
659,9	0,007
660,4	0,007
660,8	0,008
661,2	0,007
661,7	0,008
662,1	0,007
662,6	0,007
663	0,007
663,4	0,007
663,9	0,007
664,3	0,007
664,8	0,007
665,2	0,007
665,6	0,007
666,1	0,007
666,5	0,007
667	0,007
667,4	0,007
667,9	0,007
668,3	0,007
668,7	0,007
669,2	0,007
669,6	0,007
670,1	0,007
670,5	0,007
670,9	0,007
671,4	0,007
671,8	0,007
672,3	0,007
672,7	0,007
673,1	0,007
673,6	0,007
674	0,007
674,5	0,007
674,9	0,007
675,3	0,007
675,8	0,007
676,2	0,008
676,7	0,008
677,1	0,008
677,5	0,007
678	0,007
678,4	0,008
678,9	0,008
679,3	0,007
679,7	0,008
680,2	0,008
680,6	0,007
681,1	0,008
681,5	0,007
681,9	0,007
682,4	0,007
682,8	0,007
683,3	0,007
683,7	0,007
684,1	0,007
684,6	0,007
685	0,006
685,5	0,006
685,9	0,006
686,3	0,006
686,8	0,006
687,2	0,006
687,7	0,006
688,1	0,006
688,5	0,007
689	0,007
689,4	0,007
689,9	0,007
690,3	0,007
690,7	0,007
691,2	0,006
691,6	0,007
692	0,007
692,5	0,006
692,9	0,006
693,4	0,006
693,8	0,007
694,2	0,006
694,7	0,006
695,1	0,006
695,6	0,006
696	0,006
696,4	0,006
696,9	0,006
697,3	0,006
697,8	0,005
698,2	0,005
698,6	0,005
699,1	0,005
699,5	0,005
699,9	0,005
700,4	0,005
700,8	0,005
701,3	0,005
701,7	0,006
702,1	0,006
702,6	0,006
703	0,006
703,5	0,006
703,9	0,006
704,3	0,006
704,8	0,006
705,2	0,006
705,6	0,006
706,1	0,006
706,5	0,006
707	0,006
707,4	0,006
707,8	0,005
708,3	0,005
708,7	0,005
709,2	0,005
709,6	0,005
710	0,005
710,5	0,006
710,9	0,006
711,3	0,006
711,8	0,006
712,2	0,006
712,7	0,006
713,1	0,006
713,5	0,006
714	0,006
714,4	0,006
714,8	0,007
715,3	0,006
715,7	0,006
716,2	0,007
716,6	0,007
717	0,007
717,5	0,006
717,9	0,006
718,3	0,006
718,8	0,006
719,2	0,005
719,7	0,005
720,1	0,005
720,5	0,005
721	0,005
721,4	0,005
721,8	0,005
722,3	0,005
722,7	0,005
723,2	0,005
723,6	0,006
724	0,006
724,5	0,006
724,9	0,006
725,3	0,006
725,8	0,006
726,2	0,006
726,7	0,006
727,1	0,005
727,5	0,006
728	0,006
728,4	0,005
728,8	0,006
729,3	0,005
729,7	0,005
730,1	0,005
730,6	0,005
731	0,005
731,5	0,005
731,9	0,006
732,3	0,006
732,8	0,006
733,2	0,006
733,6	0,006
734,1	0,006
734,5	0,006
734,9	0,006
735,4	0,006
735,8	0,006
736,3	0,006
736,7	0,006
737,1	0,006
737,6	0,006
738	0,005
738,4	0,005
738,9	0,005
739,3	0,005
739,7	0,005
740,2	0,005
740,6	0,005
741,1	0,005
741,5	0,005
741,9	0,005
742,4	0,005
742,8	0,005
743,2	0,005
743,7	0,005
744,1	0,005
744,5	0,005
745	0,005
745,4	0,005
745,8	0,005
746,3	0,005
746,7	0,005
747,2	0,005
747,6	0,005
748	0,005
748,5	0,005
748,9	0,005
749,3	0,005
749,8	0,005
750,2	0,005
750,6	0,005
751,1	0,005
751,5	0,005
751,9	0,006
752,4	0,006
752,8	0,006
753,3	0,005
753,7	0,005
754,1	0,005
754,6	0,005
755	0,005
755,4	0,005
755,9	0,006
756,3	0,006
756,7	0,006
757,2	0,006
757,6	0,006
758	0,006
758,5	0,005
758,9	0,005
759,3	0,005
759,8	0,005
760,2	0,005
760,6	0,005
761,1	0,005
761,5	0,006
761,9	0,006
762,4	0,006
762,8	0,007
763,3	0,007
763,7	0,007
764,1	0,007
764,6	0,006
765	0,006
765,4	0,005
765,9	0,005
766,3	0,005
766,7	0,005
767,2	0,005
767,6	0,004
768	0,004
768,5	0,004
768,9	0,005
769,3	0,005
769,8	0,004
770,2	0,005
770,6	0,005
771,1	0,005
771,5	0,005
771,9	0,005
772,4	0,006
772,8	0,006
773,2	0,006
773,7	0,006
774,1	0,006
774,5	0,007
775	0,007
775,4	0,007
775,8	0,007
776,3	0,007
776,7	0,007
777,1	0,007
777,6	0,007
778	0,007
778,4	0,007
778,9	0,006
779,3	0,006
779,7	0,006
780,2	0,006
780,6	0,006
781	0,006
781,5	0,006
781,9	0,007
782,3	0,007
782,8	0,007
783,2	0,007
783,6	0,007
784,1	0,007
784,5	0,007
784,9	0,007
785,4	0,006
785,8	0,006
786,2	0,006
786,7	0,006
787,1	0,005
787,5	0,005
788	0,005
788,4	0,005
788,8	0,004
789,3	0,004
789,7	0,005
790,1	0,005
790,6	0,005
791	0,005
791,4	0,006
791,9	0,006
792,3	0,006
792,7	0,007
793,2	0,006
793,6	0,006
794	0,006
794,5	0,005
794,9	0,005
795,3	0,005
795,8	0,005
796,2	0,005
796,6	0,005
797,1	0,006
797,5	0,006
797,9	0,006
798,4	0,006
798,8	0,006
799,2	0,006
799,7	0,006
800,1	0,006
800,5	0,006
801	0,006
801,4	0,006
801,8	0,005
802,2	0,006
802,7	0,006
803,1	0,006
803,5	0,006
804	0,006
804,4	0,005
804,8	0,005
805,3	0,005
805,7	0,005
806,1	0,005
806,6	0,005
807	0,005
807,4	0,005
807,9	0,006
808,3	0,006
808,7	0,006
809,2	0,006
809,6	0,006
810	0,005
810,4	0,005
810,9	0,005
811,3	0,005
811,7	0,005
812,2	0,005
812,6	0,005
813	0,005
813,5	0,005
813,9	0,005
814,3	0,005
814,8	0,005
815,2	0,005
815,6	0,004
816,1	0,005
816,5	0,005
816,9	0,005
817,3	0,004
817,8	0,004
818,2	0,004
818,6	0,005
819,1	0,005
819,5	0,005
819,9	0,005
820,4	0,005
820,8	0,006
821,2	0,006
821,7	0,006
822,1	0,006
822,5	0,006
822,9	0,006
823,4	0,006
823,8	0,006
824,2	0,006
824,7	0,006
825,1	0,005
825,5	0,005
826	0,005
826,4	0,006
826,8	0,005
827,3	0,005
827,7	0,005
828,1	0,005
828,5	0,005
829	0,005
829,4	0,005
829,8	0,005
830,3	0,006
830,7	0,006
831,1	0,006
831,6	0,006
832	0,006
832,4	0,006
832,8	0,006
833,3	0,006
833,7	0,005
834,1	0,005
834,6	0,005
835	0,005
835,4	0,005
835,8	0,005
836,3	0,005
836,7	0,005
837,1	0,005
837,6	0,005
838	0,006
838,4	0,006
838,9	0,006
839,3	0,006
839,7	0,006
840,1	0,006
840,6	0,006
841	0,005
841,4	0,005
841,9	0,005
842,3	0,005
842,7	0,005
843,1	0,005
843,6	0,005
844	0,005
844,4	0,005
844,9	0,005
845,3	0,005
845,7	0,005
846,2	0,005
846,6	0,005
847	0,005
847,4	0,006
847,9	0,006
848,3	0,006
848,7	0,006
849,2	0,007
849,6	0,007
850	0,007
850,4	0,007
850,9	0,007
851,3	0,007
851,7	0,007
852,2	0,007
852,6	0,007
853	0,007
853,4	0,007
853,9	0,007
854,3	0,006
854,7	0,006
855,2	0,006
855,6	0,006
856	0,006
856,4	0,006
856,9	0,006
857,3	0,006
857,7	0,005
858,2	0,006
858,6	0,006
859	0,006
859,4	0,006
859,9	0,006
860,3	0,006
860,7	0,006
861,1	0,007
861,6	0,007
862	0,007
862,4	0,007
862,9	0,007
863,3	0,007
863,7	0,007
864,1	0,006
864,6	0,006
865	0,006
865,4	0,005
865,9	0,005
866,3	0,005
866,7	0,005
867,1	0,005
867,6	0,004
868	0,004
868,4	0,004
868,8	0,004
869,3	0,004
869,7	0,004
870,1	0,005
870,6	0,005
871	0,005
871,4	0,005
871,8	0,005
872,3	0,004
872,7	0,004
873,1	0,004
873,5	0,004
874	0,004
874,4	0,004
874,8	0,005
875,3	0,005
875,7	0,005
876,1	0,005
876,5	0,005
877	0,006
877,4	0,006
877,8	0,006
878,2	0,006
878,7	0,006
879,1	0,006
879,5	0,006
879,9	0,005
880,4	0,005
880,8	0,005
881,2	0,005
881,7	0,005
882,1	0,005
882,5	0,005
882,9	0,005
883,4	0,005
883,8	0,005
884,2	0,005
884,6	0,005
885,1	0,006
885,5	0,006
885,9	0,006
886,3	0,005
886,8	0,005
887,2	0,005
887,6	0,005
888	0,005
888,5	0,005
888,9	0,005
889,3	0,006
889,8	0,006
890,2	0,005
890,6	0,005
891	0,005
891,5	0,005
891,9	0,005
892,3	0,005
892,7	0,005
893,2	0,006
893,6	0,006
894	0,006
894,4	0,006
894,9	0,005
895,3	0,005
895,7	0,005
896,1	0,005
896,6	0,005
897	0,005
897,4	0,005
897,8	0,005
898,3	0,005
898,7	0,005
899,1	0,005
899,5	0,005
900	0,005
900,4	0,004
900,8	0,004
901,2	0,004
901,7	0,004
902,1	0,004
902,5	0,003
902,9	0,003
903,4	0,003
903,8	0,003
904,2	0,004
904,6	0,004
905,1	0,004
905,5	0,004
905,9	0,004
906,3	0,005
906,8	0,006
907,2	0,005
907,6	0,005
908	0,005
908,5	0,006
908,9	0,006
909,3	0,006
909,7	0,006
910,2	0,006
910,6	0,006
911	0,005
911,4	0,005
911,9	0,005
912,3	0,005
912,7	0,005
913,1	0,005
913,6	0,005
914	0,005
914,4	0,005
914,8	0,005
915,3	0,006
915,7	0,005
916,1	0,005
916,5	0,005
916,9	0,005
917,4	0,005
917,8	0,005
918,2	0,005
918,6	0,006
919,1	0,006
919,5	0,006
919,9	0,006
920,3	0,006
920,8	0,006
921,2	0,005
921,6	0,005
922	0,005
922,5	0,005
922,9	0,005
923,3	0,005
923,7	0,005
924,2	0,005
924,6	0,005
925	0,006
925,4	0,006
925,8	0,006
926,3	0,006
926,7	0,006
927,1	0,006
927,5	0,006
928	0,006
928,4	0,005
928,8	0,005
929,2	0,005
929,7	0,004
930,1	0,004
930,5	0,004
930,9	0,004
931,3	0,004
931,8	0,004
932,2	0,004
932,6	0,004
933	0,004
933,5	0,004
933,9	0,004
934,3	0,004
934,7	0,004
935,2	0,004
935,6	0,004
936	0,004
936,4	0,004
936,8	0,004
937,3	0,004
937,7	0,004
938,1	0,004
938,5	0,003
939	0,003
939,4	0,004
939,8	0,005
940,2	0,005
940,6	0,005
941,1	0,006
941,5	0,007
941,9	0,007
942,3	0,007
942,8	0,006
943,2	0,006
943,6	0,006
944	0,005
944,4	0,005
944,9	0,004
945,3	0,004
945,7	0,005
946,1	0,005
946,6	0,005
947	0,006
947,4	0,007
947,8	0,007
948,2	0,007
948,7	0,007
949,1	0,007
949,5	0,007
949,9	0,006
950,3	0,006
950,8	0,006
951,2	0,006
951,6	0,006
952	0,007
952,5	0,007
952,9	0,007
953,3	0,007
953,7	0,008
954,1	0,008
954,6	0,008
955	0,008
955,4	0,008
955,8	0,008
956,2	0,008
956,7	0,007
957,1	0,007
957,5	0,006
957,9	0,006
958,3	0,005
958,8	0,005
959,2	0,004
959,6	0,005
960	0,005
960,5	0,005
960,9	0,005
961,3	0,006
961,7	0,006
962,1	0,006
962,6	0,007
963	0,006
963,4	0,006
963,8	0,006
964,2	0,005
964,7	0,005
965,1	0,005
965,5	0,004
965,9	0,005
966,3	0,005
966,8	0,005
967,2	0,006
967,6	0,006
968	0,006
968,4	0,007
968,9	0,006
969,3	0,006
969,7	0,007
970,1	0,007
970,5	0,007
971	0,008
971,4	0,007
971,8	0,008
972,2	0,008
972,6	0,008
973,1	0,009
973,5	0,009
973,9	0,008
974,3	0,008
974,7	0,009
975,2	0,008
975,6	0,008
976	0,008
976,4	0,008
976,8	0,007
977,3	0,007
977,7	0,007
978,1	0,006
978,5	0,006
978,9	0,006
979,4	0,006
979,8	0,006
980,2	0,006
980,6	0,006
981	0,007
981,5	0,006
981,9	0,006
982,3	0,007
982,7	0,006
983,1	0,006
983,6	0,006
984	0,006
984,4	0,007
984,8	0,007
985,2	0,007
985,6	0,007
986,1	0,007
986,5	0,007
986,9	0,008
987,3	0,008
987,7	0,007
988,2	0,007
988,6	0,007
989	0,007
989,4	0,006
989,8	0,006
990,3	0,006
990,7	0,006
991,1	0,006
991,5	0,006
991,9	0,007
992,3	0,007
992,8	0,008
993,2	0,008
993,6	0,008
994	0,008
994,4	0,008
994,9	0,008
995,3	0,007
995,7	0,007
996,1	0,006
996,5	0,006
996,9	0,006
997,4	0,006
997,8	0,005
998,2	0,005
998,6	0,005
999	0,004
999,5	0,004
999,9	0,003
1000,3	0,003
1000,7	0,003
1001,1	0,003
1001,5	0,003
1002	0,004
1002,4	0,005
1002,8	0,005
1003,2	0,006
1003,6	0,006
1004	0,006
1004,5	0,006
1004,9	0,006
1005,3	0,006
1005,7	0,006
1006,1	0,006
1006,6	0,006
1007	0,007
1007,4	0,007
1007,8	0,006
1008,2	0,006
1008,6	0,006
1009,1	0,006
1009,5	0,006
1009,9	0,005
1010,3	0,005
1010,7	0,005
1011,1	0,006
1011,6	0,006
1012	0,006
1012,4	0,006
1012,8	0,006
1013,2	0,007
1013,6	0,007
1014,1	0,007
1014,5	0,007
1014,9	0,007
1015,3	0,007
1015,7	0,006
1016,1	0,006
1016,6	0,006
1017	0,006
1017,4	0,006
1017,8	0,005
1018,2	0,005
1018,6	0,005
1019,1	0,005
1019,5	0,005
1019,9	0,005
1020,3	0,006
1020,7	0,007
1021,1	0,007
1021,6	0,007
1022	0,007
1022,4	0,007
1022,8	0,006
1023,2	0,006
1023,6	0,006
1024,1	0,006
1024,5	0,005
1024,9	0,006
1025,3	0,006
1025,7	0,006
1026,1	0,006
1026,6	0,006
1027	0,006
1027,4	0,007
1027,8	0,007
1028,2	0,007
1028,6	0,007
1029	0,007
1029,5	0,007
1029,9	0,007
1030,3	0,007
1030,7	0,007
1031,1	0,008
1031,5	0,008
1032	0,008
1032,4	0,007
1032,8	0,007
1033,2	0,008
1033,6	0,008
1034	0,007
1034,4	0,007
1034,9	0,007
1035,3	0,007
1035,7	0,007
1036,1	0,007
1036,5	0,007
1036,9	0,008
1037,4	0,008
1037,8	0,009
1038,2	0,009
1038,6	0,009
1039	0,009
1039,4	0,01
1039,8	0,01
1040,3	0,01
1040,7	0,01
1041,1	0,009
1041,5	0,009
1041,9	0,01
1042,3	0,009
1042,7	0,008
1043,2	0,008
1043,6	0,008
1044	0,01
1044,4	0,01
1044,8	0,009
1045,2	0,01
1045,6	0,011
1046,1	0,011
1046,5	0,011
1046,9	0,011
1047,3	0,01
1047,7	0,011
1048,1	0,01
1048,5	0,011
1049	0,011
1049,4	0,011
1049,8	0,012
1050,2	0,012
1050,6	0,012
1051	0,012
1051,4	0,011
1051,9	0,012
1052,3	0,011
1052,7	0,01
1053,1	0,011
1053,5	0,01
1053,9	0,011
1054,3	0,012
1054,8	0,01
1055,2	0,01
1055,6	0,01
1056	0,009
1056,4	0,01
1056,8	0,009
1057,2	0,009
1057,6	0,01
1058,1	0,01
1058,5	0,01
1058,9	0,011
1059,3	0,012
1059,7	0,012
1060,1	0,014
1060,5	0,014
1061	0,014
1061,4	0,013
1061,8	0,014
1062,2	0,013
1062,6	0,012
1063	0,011
1063,4	0,012
1063,8	0,012
1064,3	0,012
1064,7	0,011
1065,1	0,012
1065,5	0,012
1065,9	0,012
1066,3	0,012
1066,7	0,012
1067,1	0,012
1067,6	0,013
1068	0,013
1068,4	0,013
1068,8	0,011
1069,2	0,012
1069,6	0,011
1070	0,012
1070,4	0,011
1070,9	0,012
1071,3	0,013
1071,7	0,014
1072,1	0,014
1072,5	0,014
1072,9	0,013
1073,3	0,014
1073,7	0,014
1074,2	0,015
1074,6	0,014
1075	0,014
1075,4	0,015
1075,8	0,015
1076,2	0,014
1076,6	0,013
1077	0,013
1077,5	0,014
1077,9	0,013
1078,3	0,012
1078,7	0,012
1079,1	0,012
1079,5	0,011
1079,9	0,011
1080,3	0,011
1080,7	0,011
1081,2	0,011
1081,6	0,012
1082	0,012
1082,4	0,012
1082,8	0,011
1083,2	0,012
1083,6	0,012
1084	0,012
1084,5	0,011
1084,9	0,011
1085,3	0,011
1085,7	0,013
1086,1	0,013
1086,5	0,014
1086,9	0,014
1087,3	0,014
1087,7	0,015
1088,2	0,015
1088,6	0,013
1089	0,013
1089,4	0,017
1089,8	0,019
1090,2	0,019
1090,6	0,019
1091	0,021
1091,4	0,022
1091,9	0,022
1092,3	0,02
1092,7	0,018
1093,1	0,021
1093,5	0,021
1093,9	0,022
1094,3	0,022
1094,7	0,028
1095,1	0,03
1095,5	0,034
1096	0,034
1096,4	0,041
1096,8	0,042
1097,2	0,042
1097,6	0,033
1098	0,032
1098,4	0,031
1098,8	0,037
1099,2	0,033
1099,6	0,036
1100,1	0,034
1100,5	0,034
1100,9	0,031
1101,3	0,036
1101,7	0,038
1102,1	0,033
1102,5	0,035
1102,9	0,046
1103,3	0,058
1103,7	0,071
1104,2	0,073
1104,6	0,065
1105	0,083
1105,4	0,078
1105,8	0,077
1106,2	0,075
1106,6	0,079
1107	0,072
1107,4	0,116
1107,8	0,055
1108,3	-0,747
