Data from Absorbance_007.txt Node
Date: Fri Nov 13 12:11:40 MSK 2020
User: vat
Spectrometer: MAYP114033
Trigger mode: 0
Integration Time (sec): 8,000000E-3
Scans to average: 10
Electric dark correction enabled: true
Nonlinearity correction enabled: false
Boxcar width: 3
XAxis mode: Wavelengths
Number of Pixels in Spectrum: 2068
>>>>>Begin Spectral Data<<<<<
199,4	-0,68
199,9	-0,087
200,4	-0,012
200,8	0,014
201,3	-0,011
201,8	0,02
202,2	0,003
202,7	0,003
203,2	0,006
203,6	0,012
204,1	0,01
204,6	0,013
205	0,002
205,5	0,011
206	0
206,4	-0,007
206,9	-0,018
207,4	-0,022
207,8	-0,005
208,3	0,01
208,8	0,021
209,2	0,045
209,7	0,043
210,2	0,05
210,6	0,05
211,1	0,044
211,5	0,039
212	0,033
212,5	0,011
212,9	0,013
213,4	0,022
213,9	0,016
214,3	0,025
214,8	0,007
215,3	0,002
215,7	0,011
216,2	-0,002
216,7	-0,005
217,1	-0,011
217,6	-0,017
218,1	0,017
218,5	0,025
219	0,01
219,5	0,046
219,9	0,029
220,4	0,043
220,9	0,043
221,3	0,022
221,8	0,015
222,3	0,031
222,7	0,021
223,2	0,041
223,6	0,049
224,1	0,043
224,6	0,045
225	0,052
225,5	0,036
226	0,035
226,4	0,035
226,9	0,021
227,4	0,026
227,8	0,032
228,3	0,027
228,8	0,027
229,2	0,022
229,7	0,014
230,2	0,024
230,6	0,026
231,1	0,033
231,5	0,06
232	0,074
232,5	0,075
232,9	0,081
233,4	0,072
233,9	0,083
234,3	0,084
234,8	0,065
235,3	0,065
235,7	0,075
236,2	0,071
236,7	0,086
237,1	0,084
237,6	0,081
238,1	0,087
238,5	0,094
239	0,099
239,4	0,113
239,9	0,112
240,4	0,113
240,8	0,121
241,3	0,119
241,8	0,109
242,2	0,111
242,7	0,111
243,2	0,117
243,6	0,133
244,1	0,133
244,6	0,138
245	0,163
245,5	0,175
245,9	0,186
246,4	0,195
246,9	0,202
247,3	0,223
247,8	0,239
248,3	0,256
248,7	0,267
249,2	0,277
249,7	0,294
250,1	0,308
250,6	0,314
251	0,321
251,5	0,324
252	0,332
252,4	0,346
252,9	0,35
253,4	0,36
253,8	0,366
254,3	0,378
254,8	0,392
255,2	0,404
255,7	0,416
256,1	0,43
256,6	0,442
257,1	0,456
257,5	0,47
258	0,484
258,5	0,5
258,9	0,515
259,4	0,531
259,9	0,547
260,3	0,564
260,8	0,581
261,2	0,597
261,7	0,614
262,2	0,631
262,6	0,65
263,1	0,67
263,6	0,69
264	0,711
264,5	0,731
264,9	0,752
265,4	0,773
265,9	0,793
266,3	0,814
266,8	0,834
267,3	0,855
267,7	0,875
268,2	0,898
268,7	0,916
269,1	0,937
269,6	0,957
270	0,977
270,5	0,998
271	1,019
271,4	1,038
271,9	1,06
272,4	1,08
272,8	1,099
273,3	1,119
273,7	1,137
274,2	1,152
274,7	1,166
275,1	1,183
275,6	1,2
276,1	1,218
276,5	1,231
277	1,243
277,4	1,256
277,9	1,269
278,4	1,281
278,8	1,29
279,3	1,297
279,8	1,307
280,2	1,316
280,7	1,323
281,1	1,326
281,6	1,331
282,1	1,335
282,5	1,34
283	1,339
283,4	1,338
283,9	1,336
284,4	1,337
284,8	1,331
285,3	1,325
285,8	1,316
286,2	1,309
286,7	1,299
287,1	1,29
287,6	1,277
288,1	1,264
288,5	1,251
289	1,237
289,5	1,22
289,9	1,201
290,4	1,184
290,8	1,164
291,3	1,143
291,8	1,121
292,2	1,098
292,7	1,075
293,1	1,052
293,6	1,026
294,1	1,001
294,5	0,975
295	0,948
295,5	0,921
295,9	0,893
296,4	0,867
296,8	0,839
297,3	0,811
297,8	0,783
298,2	0,755
298,7	0,727
299,1	0,699
299,6	0,672
300,1	0,644
300,5	0,618
301	0,591
301,5	0,566
301,9	0,54
302,4	0,515
302,8	0,49
303,3	0,466
303,8	0,443
304,2	0,421
304,7	0,399
305,1	0,379
305,6	0,36
306,1	0,34
306,5	0,322
307	0,304
307,4	0,288
307,9	0,271
308,4	0,256
308,8	0,241
309,3	0,227
309,8	0,214
310,2	0,202
310,7	0,19
311,1	0,179
311,6	0,168
312,1	0,158
312,5	0,148
313	0,14
313,4	0,131
313,9	0,124
314,4	0,116
314,8	0,11
315,3	0,104
315,7	0,097
316,2	0,092
316,7	0,086
317,1	0,081
317,6	0,077
318	0,073
318,5	0,068
319	0,065
319,4	0,061
319,9	0,058
320,3	0,055
320,8	0,052
321,3	0,049
321,7	0,047
322,2	0,044
322,6	0,042
323,1	0,04
323,6	0,039
324	0,037
324,5	0,036
324,9	0,034
325,4	0,033
325,9	0,032
326,3	0,031
326,8	0,03
327,2	0,029
327,7	0,028
328,2	0,027
328,6	0,026
329,1	0,025
329,5	0,025
330	0,024
330,5	0,023
330,9	0,023
331,4	0,022
331,8	0,022
332,3	0,021
332,8	0,021
333,2	0,02
333,7	0,02
334,1	0,02
334,6	0,02
335,1	0,02
335,5	0,019
336	0,018
336,4	0,018
336,9	0,018
337,4	0,017
337,8	0,017
338,3	0,016
338,7	0,016
339,2	0,016
339,7	0,016
340,1	0,015
340,6	0,015
341	0,015
341,5	0,015
342	0,014
342,4	0,014
342,9	0,014
343,3	0,014
343,8	0,014
344,2	0,014
344,7	0,014
345,2	0,014
345,6	0,014
346,1	0,013
346,5	0,013
347	0,013
347,5	0,013
347,9	0,012
348,4	0,012
348,8	0,011
349,3	0,012
349,8	0,012
350,2	0,012
350,7	0,011
351,1	0,011
351,6	0,011
352	0,01
352,5	0,01
353	0,01
353,4	0,01
353,9	0,01
354,3	0,01
354,8	0,01
355,3	0,01
355,7	0,01
356,2	0,01
356,6	0,01
357,1	0,009
357,5	0,009
358	0,009
358,5	0,008
358,9	0,008
359,4	0,008
359,8	0,009
360,3	0,008
360,8	0,008
361,2	0,008
361,7	0,008
362,1	0,007
362,6	0,007
363	0,007
363,5	0,006
364	0,006
364,4	0,006
364,9	0,006
365,3	0,006
365,8	0,006
366,3	0,005
366,7	0,006
367,2	0,005
367,6	0,005
368,1	0,006
368,5	0,005
369	0,005
369,5	0,005
369,9	0,005
370,4	0,005
370,8	0,005
371,3	0,004
371,7	0,005
372,2	0,005
372,7	0,005
373,1	0,005
373,6	0,004
374	0,004
374,5	0,004
374,9	0,003
375,4	0,002
375,9	0,002
376,3	0,002
376,8	0,002
377,2	0,002
377,7	0,002
378,2	0,003
378,6	0,003
379,1	0,003
379,5	0,003
380	0,002
380,4	0,002
380,9	0,002
381,4	0,001
381,8	0
382,3	0
382,7	0
383,2	0
383,6	0
384,1	0
384,6	0
385	0
385,5	0
385,9	0,001
386,4	0
386,8	-0
387,3	-0
387,7	-0
388,2	-0
388,7	-0,001
389,1	-0,002
389,6	-0,001
390	-0,001
390,5	-0,001
390,9	-0,002
391,4	-0,002
391,9	-0,002
392,3	-0,002
392,8	-0,002
393,2	-0,001
393,7	-0,001
394,1	-0,001
394,6	-0,001
395,1	-0,002
395,5	-0,001
396	-0,002
396,4	-0,003
396,9	-0,003
397,3	-0,003
397,8	-0,003
398,2	-0,003
398,7	-0,004
399,2	-0,003
399,6	-0,003
400,1	-0,003
400,5	-0,003
401	-0,003
401,4	-0,002
401,9	-0,003
402,4	-0,003
402,8	-0,003
403,3	-0,003
403,7	-0,004
404,2	-0,004
404,6	-0,004
405,1	-0,004
405,5	-0,004
406	-0,004
406,5	-0,004
406,9	-0,004
407,4	-0,004
407,8	-0,004
408,3	-0,005
408,7	-0,005
409,2	-0,005
409,6	-0,005
410,1	-0,005
410,6	-0,005
411	-0,005
411,5	-0,005
411,9	-0,005
412,4	-0,005
412,8	-0,005
413,3	-0,005
413,7	-0,005
414,2	-0,006
414,7	-0,006
415,1	-0,006
415,6	-0,006
416	-0,006
416,5	-0,006
416,9	-0,006
417,4	-0,005
417,8	-0,005
418,3	-0,005
418,8	-0,005
419,2	-0,006
419,7	-0,006
420,1	-0,007
420,6	-0,007
421	-0,007
421,5	-0,007
421,9	-0,007
422,4	-0,006
422,8	-0,006
423,3	-0,006
423,8	-0,006
424,2	-0,006
424,7	-0,006
425,1	-0,007
425,6	-0,007
426	-0,008
426,5	-0,008
426,9	-0,008
427,4	-0,008
427,9	-0,007
428,3	-0,007
428,8	-0,007
429,2	-0,007
429,7	-0,006
430,1	-0,007
430,6	-0,007
431	-0,008
431,5	-0,008
431,9	-0,009
432,4	-0,008
432,8	-0,009
433,3	-0,009
433,8	-0,008
434,2	-0,008
434,7	-0,008
435,1	-0,008
435,6	-0,008
436	-0,007
436,5	-0,007
436,9	-0,007
437,4	-0,008
437,8	-0,008
438,3	-0,008
438,8	-0,009
439,2	-0,01
439,7	-0,01
440,1	-0,01
440,6	-0,01
441	-0,01
441,5	-0,009
441,9	-0,009
442,4	-0,009
442,8	-0,009
443,3	-0,009
443,7	-0,009
444,2	-0,01
444,7	-0,01
445,1	-0,01
445,6	-0,01
446	-0,01
446,5	-0,01
446,9	-0,01
447,4	-0,01
447,8	-0,009
448,3	-0,01
448,7	-0,009
449,2	-0,01
449,6	-0,01
450,1	-0,01
450,6	-0,01
451	-0,011
451,5	-0,01
451,9	-0,011
452,4	-0,01
452,8	-0,01
453,3	-0,01
453,7	-0,01
454,2	-0,01
454,6	-0,011
455,1	-0,011
455,5	-0,011
456	-0,012
456,4	-0,011
456,9	-0,011
457,3	-0,011
457,8	-0,011
458,3	-0,011
458,7	-0,011
459,2	-0,011
459,6	-0,011
460,1	-0,011
460,5	-0,011
461	-0,012
461,4	-0,012
461,9	-0,012
462,3	-0,012
462,8	-0,012
463,2	-0,012
463,7	-0,012
464,1	-0,012
464,6	-0,012
465	-0,012
465,5	-0,012
466	-0,012
466,4	-0,012
466,9	-0,013
467,3	-0,013
467,8	-0,013
468,2	-0,013
468,7	-0,014
469,1	-0,014
469,6	-0,014
470	-0,014
470,5	-0,014
470,9	-0,013
471,4	-0,012
471,8	-0,012
472,3	-0,011
472,7	-0,011
473,2	-0,011
473,6	-0,01
474,1	-0,011
474,5	-0,012
475	-0,012
475,4	-0,013
475,9	-0,013
476,4	-0,013
476,8	-0,013
477,3	-0,013
477,7	-0,013
478,2	-0,013
478,6	-0,013
479,1	-0,013
479,5	-0,013
480	-0,013
480,4	-0,014
480,9	-0,014
481,3	-0,014
481,8	-0,013
482,2	-0,014
482,7	-0,014
483,1	-0,014
483,6	-0,014
484	-0,014
484,5	-0,015
484,9	-0,015
485,4	-0,015
485,8	-0,015
486,3	-0,015
486,7	-0,014
487,2	-0,014
487,6	-0,014
488,1	-0,013
488,5	-0,013
489	-0,013
489,4	-0,013
489,9	-0,013
490,4	-0,014
490,8	-0,014
491,3	-0,014
491,7	-0,015
492,2	-0,016
492,6	-0,015
493,1	-0,016
493,5	-0,016
494	-0,015
494,4	-0,015
494,9	-0,015
495,3	-0,015
495,8	-0,015
496,2	-0,015
496,7	-0,015
497,1	-0,015
497,6	-0,016
498	-0,015
498,5	-0,015
498,9	-0,015
499,4	-0,015
499,8	-0,015
500,3	-0,015
500,7	-0,015
501,2	-0,015
501,6	-0,015
502,1	-0,015
502,5	-0,015
503	-0,015
503,4	-0,015
503,9	-0,016
504,3	-0,016
504,8	-0,016
505,2	-0,016
505,7	-0,016
506,1	-0,016
506,6	-0,016
507	-0,016
507,5	-0,016
507,9	-0,016
508,4	-0,016
508,8	-0,016
509,3	-0,016
509,7	-0,016
510,2	-0,016
510,6	-0,015
511,1	-0,016
511,5	-0,016
512	-0,016
512,4	-0,016
512,9	-0,016
513,3	-0,016
513,8	-0,017
514,2	-0,018
514,7	-0,017
515,1	-0,017
515,6	-0,017
516	-0,017
516,5	-0,017
516,9	-0,017
517,4	-0,017
517,8	-0,017
518,3	-0,017
518,7	-0,017
519,2	-0,017
519,6	-0,017
520,1	-0,017
520,5	-0,017
521	-0,017
521,4	-0,017
521,9	-0,017
522,3	-0,017
522,8	-0,017
523,2	-0,017
523,7	-0,016
524,1	-0,017
524,6	-0,017
525	-0,017
525,5	-0,018
525,9	-0,018
526,4	-0,018
526,8	-0,018
527,3	-0,018
527,7	-0,018
528,2	-0,018
528,6	-0,018
529,1	-0,018
529,5	-0,018
530	-0,018
530,4	-0,019
530,9	-0,019
531,3	-0,019
531,8	-0,019
532,2	-0,019
532,6	-0,019
533,1	-0,019
533,5	-0,019
534	-0,019
534,4	-0,019
534,9	-0,019
535,3	-0,019
535,8	-0,019
536,2	-0,019
536,7	-0,019
537,1	-0,02
537,6	-0,02
538	-0,019
538,5	-0,019
538,9	-0,019
539,4	-0,019
539,8	-0,019
540,3	-0,019
540,7	-0,019
541,2	-0,019
541,6	-0,019
542,1	-0,019
542,5	-0,02
543	-0,019
543,4	-0,02
543,9	-0,019
544,3	-0,019
544,8	-0,019
545,2	-0,019
545,7	-0,019
546,1	-0,019
546,5	-0,019
547	-0,019
547,4	-0,02
547,9	-0,02
548,3	-0,02
548,8	-0,02
549,2	-0,021
549,7	-0,021
550,1	-0,021
550,6	-0,021
551	-0,02
551,5	-0,021
551,9	-0,02
552,4	-0,02
552,8	-0,019
553,3	-0,02
553,7	-0,02
554,2	-0,02
554,6	-0,02
555,1	-0,019
555,5	-0,019
555,9	-0,019
556,4	-0,019
556,8	-0,019
557,3	-0,019
557,7	-0,019
558,2	-0,019
558,6	-0,02
559,1	-0,02
559,5	-0,021
560	-0,02
560,4	-0,021
560,9	-0,02
561,3	-0,02
561,8	-0,02
562,2	-0,02
562,7	-0,02
563,1	-0,02
563,6	-0,02
564	-0,021
564,4	-0,021
564,9	-0,021
565,3	-0,021
565,8	-0,02
566,2	-0,02
566,7	-0,02
567,1	-0,02
567,6	-0,021
568	-0,021
568,5	-0,021
568,9	-0,022
569,4	-0,022
569,8	-0,022
570,3	-0,022
570,7	-0,022
571,1	-0,022
571,6	-0,021
572	-0,021
572,5	-0,021
572,9	-0,022
573,4	-0,022
573,8	-0,022
574,3	-0,022
574,7	-0,022
575,2	-0,022
575,6	-0,022
576,1	-0,022
576,5	-0,022
576,9	-0,022
577,4	-0,022
577,8	-0,022
578,3	-0,022
578,7	-0,022
579,2	-0,022
579,6	-0,022
580,1	-0,022
580,5	-0,022
581	-0,022
581,4	-0,022
581,9	-0,022
582,3	-0,022
582,7	-0,022
583,2	-0,022
583,6	-0,022
584,1	-0,022
584,5	-0,022
585	-0,022
585,4	-0,022
585,9	-0,022
586,3	-0,022
586,8	-0,022
587,2	-0,022
587,6	-0,022
588,1	-0,022
588,5	-0,022
589	-0,022
589,4	-0,022
589,9	-0,022
590,3	-0,022
590,8	-0,022
591,2	-0,023
591,7	-0,023
592,1	-0,022
592,5	-0,022
593	-0,023
593,4	-0,022
593,9	-0,022
594,3	-0,022
594,8	-0,022
595,2	-0,023
595,7	-0,023
596,1	-0,022
596,6	-0,022
597	-0,022
597,4	-0,022
597,9	-0,022
598,3	-0,022
598,8	-0,023
599,2	-0,022
599,7	-0,022
600,1	-0,023
600,6	-0,022
601	-0,022
601,4	-0,022
601,9	-0,022
602,3	-0,023
602,8	-0,023
603,2	-0,023
603,7	-0,023
604,1	-0,023
604,6	-0,023
605	-0,023
605,4	-0,023
605,9	-0,023
606,3	-0,023
606,8	-0,023
607,2	-0,023
607,7	-0,023
608,1	-0,023
608,6	-0,023
609	-0,023
609,4	-0,024
609,9	-0,024
610,3	-0,024
610,8	-0,024
611,2	-0,024
611,7	-0,024
612,1	-0,024
612,6	-0,024
613	-0,024
613,4	-0,024
613,9	-0,024
614,3	-0,024
614,8	-0,024
615,2	-0,024
615,7	-0,024
616,1	-0,023
616,6	-0,023
617	-0,023
617,4	-0,023
617,9	-0,022
618,3	-0,023
618,8	-0,023
619,2	-0,023
619,7	-0,023
620,1	-0,023
620,5	-0,023
621	-0,023
621,4	-0,024
621,9	-0,023
622,3	-0,024
622,8	-0,024
623,2	-0,024
623,6	-0,024
624,1	-0,024
624,5	-0,024
625	-0,024
625,4	-0,024
625,9	-0,024
626,3	-0,023
626,8	-0,023
627,2	-0,023
627,6	-0,023
628,1	-0,023
628,5	-0,023
629	-0,022
629,4	-0,023
629,9	-0,023
630,3	-0,023
630,7	-0,023
631,2	-0,023
631,6	-0,023
632,1	-0,024
632,5	-0,024
633	-0,024
633,4	-0,023
633,8	-0,023
634,3	-0,023
634,7	-0,023
635,2	-0,023
635,6	-0,023
636,1	-0,023
636,5	-0,023
636,9	-0,023
637,4	-0,023
637,8	-0,022
638,3	-0,022
638,7	-0,023
639,2	-0,023
639,6	-0,023
640	-0,023
640,5	-0,023
640,9	-0,024
641,4	-0,024
641,8	-0,024
642,2	-0,024
642,7	-0,024
643,1	-0,024
643,6	-0,024
644	-0,024
644,5	-0,023
644,9	-0,023
645,3	-0,023
645,8	-0,023
646,2	-0,023
646,7	-0,023
647,1	-0,024
647,6	-0,024
648	-0,024
648,4	-0,024
648,9	-0,024
649,3	-0,024
649,8	-0,024
650,2	-0,024
650,6	-0,024
651,1	-0,024
651,5	-0,025
652	-0,025
652,4	-0,025
652,9	-0,024
653,3	-0,024
653,7	-0,024
654,2	-0,016
654,6	-0,011
655,1	-0,008
655,5	-0,01
655,9	-0,01
656,4	-0,009
656,8	-0,007
657,3	-0,01
657,7	-0,014
658,2	-0,022
658,6	-0,022
659	-0,023
659,5	-0,023
659,9	-0,023
660,4	-0,023
660,8	-0,023
661,2	-0,024
661,7	-0,024
662,1	-0,024
662,6	-0,024
663	-0,024
663,4	-0,024
663,9	-0,024
664,3	-0,024
664,8	-0,024
665,2	-0,024
665,6	-0,024
666,1	-0,024
666,5	-0,024
667	-0,024
667,4	-0,024
667,9	-0,024
668,3	-0,024
668,7	-0,024
669,2	-0,024
669,6	-0,024
670,1	-0,024
670,5	-0,024
670,9	-0,024
671,4	-0,024
671,8	-0,024
672,3	-0,024
672,7	-0,024
673,1	-0,024
673,6	-0,024
674	-0,024
674,5	-0,024
674,9	-0,023
675,3	-0,023
675,8	-0,023
676,2	-0,023
676,7	-0,024
677,1	-0,024
677,5	-0,025
678	-0,024
678,4	-0,025
678,9	-0,025
679,3	-0,025
679,7	-0,024
680,2	-0,024
680,6	-0,024
681,1	-0,024
681,5	-0,024
681,9	-0,024
682,4	-0,025
682,8	-0,025
683,3	-0,025
683,7	-0,025
684,1	-0,025
684,6	-0,025
685	-0,025
685,5	-0,025
685,9	-0,025
686,3	-0,025
686,8	-0,025
687,2	-0,025
687,7	-0,025
688,1	-0,025
688,5	-0,025
689	-0,025
689,4	-0,024
689,9	-0,025
690,3	-0,024
690,7	-0,025
691,2	-0,024
691,6	-0,024
692	-0,024
692,5	-0,025
692,9	-0,024
693,4	-0,025
693,8	-0,024
694,2	-0,024
694,7	-0,024
695,1	-0,024
695,6	-0,024
696	-0,024
696,4	-0,024
696,9	-0,023
697,3	-0,024
697,8	-0,024
698,2	-0,024
698,6	-0,024
699,1	-0,024
699,5	-0,024
699,9	-0,024
700,4	-0,024
700,8	-0,024
701,3	-0,024
701,7	-0,024
702,1	-0,025
702,6	-0,025
703	-0,025
703,5	-0,025
703,9	-0,025
704,3	-0,025
704,8	-0,025
705,2	-0,025
705,6	-0,025
706,1	-0,025
706,5	-0,025
707	-0,025
707,4	-0,025
707,8	-0,025
708,3	-0,025
708,7	-0,026
709,2	-0,026
709,6	-0,026
710	-0,026
710,5	-0,026
710,9	-0,025
711,3	-0,025
711,8	-0,025
712,2	-0,025
712,7	-0,025
713,1	-0,025
713,5	-0,025
714	-0,025
714,4	-0,025
714,8	-0,025
715,3	-0,025
715,7	-0,025
716,2	-0,024
716,6	-0,024
717	-0,024
717,5	-0,025
717,9	-0,025
718,3	-0,025
718,8	-0,025
719,2	-0,025
719,7	-0,025
720,1	-0,025
720,5	-0,024
721	-0,025
721,4	-0,025
721,8	-0,025
722,3	-0,025
722,7	-0,025
723,2	-0,025
723,6	-0,025
724	-0,025
724,5	-0,024
724,9	-0,024
725,3	-0,024
725,8	-0,023
726,2	-0,023
726,7	-0,024
727,1	-0,023
727,5	-0,024
728	-0,024
728,4	-0,025
728,8	-0,025
729,3	-0,025
729,7	-0,026
730,1	-0,026
730,6	-0,026
731	-0,026
731,5	-0,026
731,9	-0,026
732,3	-0,026
732,8	-0,025
733,2	-0,025
733,6	-0,025
734,1	-0,025
734,5	-0,025
734,9	-0,025
735,4	-0,025
735,8	-0,024
736,3	-0,024
736,7	-0,024
737,1	-0,024
737,6	-0,024
738	-0,023
738,4	-0,024
738,9	-0,024
739,3	-0,023
739,7	-0,024
740,2	-0,023
740,6	-0,024
741,1	-0,024
741,5	-0,023
741,9	-0,024
742,4	-0,024
742,8	-0,024
743,2	-0,025
743,7	-0,025
744,1	-0,025
744,5	-0,025
745	-0,025
745,4	-0,025
745,8	-0,025
746,3	-0,024
746,7	-0,024
747,2	-0,024
747,6	-0,024
748	-0,024
748,5	-0,024
748,9	-0,024
749,3	-0,025
749,8	-0,025
750,2	-0,024
750,6	-0,025
751,1	-0,025
751,5	-0,025
751,9	-0,025
752,4	-0,025
752,8	-0,025
753,3	-0,025
753,7	-0,025
754,1	-0,025
754,6	-0,025
755	-0,025
755,4	-0,025
755,9	-0,025
756,3	-0,025
756,7	-0,025
757,2	-0,025
757,6	-0,025
758	-0,025
758,5	-0,025
758,9	-0,025
759,3	-0,025
759,8	-0,025
760,2	-0,025
760,6	-0,025
761,1	-0,025
761,5	-0,025
761,9	-0,025
762,4	-0,025
762,8	-0,025
763,3	-0,025
763,7	-0,025
764,1	-0,025
764,6	-0,025
765	-0,025
765,4	-0,025
765,9	-0,024
766,3	-0,024
766,7	-0,024
767,2	-0,024
767,6	-0,024
768	-0,024
768,5	-0,025
768,9	-0,025
769,3	-0,025
769,8	-0,024
770,2	-0,024
770,6	-0,024
771,1	-0,024
771,5	-0,024
771,9	-0,024
772,4	-0,024
772,8	-0,024
773,2	-0,024
773,7	-0,024
774,1	-0,024
774,5	-0,025
775	-0,025
775,4	-0,025
775,8	-0,024
776,3	-0,024
776,7	-0,025
777,1	-0,025
777,6	-0,024
778	-0,024
778,4	-0,024
778,9	-0,025
779,3	-0,025
779,7	-0,025
780,2	-0,025
780,6	-0,025
781	-0,025
781,5	-0,025
781,9	-0,025
782,3	-0,025
782,8	-0,025
783,2	-0,025
783,6	-0,025
784,1	-0,025
784,5	-0,025
784,9	-0,025
785,4	-0,025
785,8	-0,025
786,2	-0,025
786,7	-0,025
787,1	-0,025
787,5	-0,024
788	-0,024
788,4	-0,024
788,8	-0,024
789,3	-0,024
789,7	-0,024
790,1	-0,024
790,6	-0,025
791	-0,025
791,4	-0,025
791,9	-0,025
792,3	-0,025
792,7	-0,025
793,2	-0,024
793,6	-0,024
794	-0,024
794,5	-0,024
794,9	-0,024
795,3	-0,024
795,8	-0,024
796,2	-0,024
796,6	-0,024
797,1	-0,024
797,5	-0,024
797,9	-0,024
798,4	-0,024
798,8	-0,025
799,2	-0,025
799,7	-0,025
800,1	-0,025
800,5	-0,025
801	-0,025
801,4	-0,025
801,8	-0,025
802,2	-0,025
802,7	-0,025
803,1	-0,025
803,5	-0,024
804	-0,024
804,4	-0,024
804,8	-0,024
805,3	-0,024
805,7	-0,023
806,1	-0,024
806,6	-0,024
807	-0,024
807,4	-0,024
807,9	-0,025
808,3	-0,025
808,7	-0,025
809,2	-0,025
809,6	-0,026
810	-0,025
810,4	-0,025
810,9	-0,025
811,3	-0,025
811,7	-0,025
812,2	-0,025
812,6	-0,024
813	-0,024
813,5	-0,024
813,9	-0,024
814,3	-0,024
814,8	-0,024
815,2	-0,024
815,6	-0,024
816,1	-0,024
816,5	-0,024
816,9	-0,024
817,3	-0,024
817,8	-0,025
818,2	-0,025
818,6	-0,025
819,1	-0,025
819,5	-0,025
819,9	-0,025
820,4	-0,025
820,8	-0,025
821,2	-0,025
821,7	-0,025
822,1	-0,024
822,5	-0,024
822,9	-0,024
823,4	-0,024
823,8	-0,025
824,2	-0,024
824,7	-0,024
825,1	-0,025
825,5	-0,025
826	-0,025
826,4	-0,025
826,8	-0,025
827,3	-0,025
827,7	-0,025
828,1	-0,024
828,5	-0,025
829	-0,024
829,4	-0,025
829,8	-0,025
830,3	-0,025
830,7	-0,024
831,1	-0,024
831,6	-0,024
832	-0,024
832,4	-0,024
832,8	-0,024
833,3	-0,024
833,7	-0,025
834,1	-0,025
834,6	-0,025
835	-0,025
835,4	-0,025
835,8	-0,025
836,3	-0,026
836,7	-0,026
837,1	-0,026
837,6	-0,026
838	-0,025
838,4	-0,025
838,9	-0,025
839,3	-0,025
839,7	-0,025
840,1	-0,025
840,6	-0,025
841	-0,025
841,4	-0,025
841,9	-0,025
842,3	-0,025
842,7	-0,025
843,1	-0,025
843,6	-0,024
844	-0,024
844,4	-0,024
844,9	-0,024
845,3	-0,023
845,7	-0,023
846,2	-0,024
846,6	-0,024
847	-0,024
847,4	-0,024
847,9	-0,024
848,3	-0,024
848,7	-0,024
849,2	-0,024
849,6	-0,025
850	-0,025
850,4	-0,025
850,9	-0,025
851,3	-0,025
851,7	-0,025
852,2	-0,025
852,6	-0,025
853	-0,025
853,4	-0,025
853,9	-0,025
854,3	-0,025
854,7	-0,025
855,2	-0,025
855,6	-0,025
856	-0,025
856,4	-0,025
856,9	-0,025
857,3	-0,025
857,7	-0,025
858,2	-0,025
858,6	-0,025
859	-0,025
859,4	-0,025
859,9	-0,025
860,3	-0,025
860,7	-0,025
861,1	-0,025
861,6	-0,025
862	-0,025
862,4	-0,025
862,9	-0,025
863,3	-0,025
863,7	-0,025
864,1	-0,025
864,6	-0,026
865	-0,026
865,4	-0,026
865,9	-0,025
866,3	-0,025
866,7	-0,025
867,1	-0,025
867,6	-0,025
868	-0,025
868,4	-0,024
868,8	-0,024
869,3	-0,024
869,7	-0,024
870,1	-0,025
870,6	-0,024
871	-0,024
871,4	-0,025
871,8	-0,025
872,3	-0,025
872,7	-0,025
873,1	-0,025
873,5	-0,026
874	-0,026
874,4	-0,025
874,8	-0,025
875,3	-0,025
875,7	-0,025
876,1	-0,025
876,5	-0,025
877	-0,025
877,4	-0,025
877,8	-0,025
878,2	-0,024
878,7	-0,024
879,1	-0,024
879,5	-0,024
879,9	-0,025
880,4	-0,025
880,8	-0,025
881,2	-0,025
881,7	-0,025
882,1	-0,025
882,5	-0,025
882,9	-0,024
883,4	-0,024
883,8	-0,024
884,2	-0,024
884,6	-0,024
885,1	-0,024
885,5	-0,024
885,9	-0,024
886,3	-0,024
886,8	-0,024
887,2	-0,025
887,6	-0,025
888	-0,024
888,5	-0,024
888,9	-0,024
889,3	-0,024
889,8	-0,024
890,2	-0,024
890,6	-0,024
891	-0,025
891,5	-0,026
891,9	-0,026
892,3	-0,026
892,7	-0,026
893,2	-0,026
893,6	-0,026
894	-0,026
894,4	-0,026
894,9	-0,026
895,3	-0,025
895,7	-0,025
896,1	-0,025
896,6	-0,025
897	-0,025
897,4	-0,025
897,8	-0,025
898,3	-0,025
898,7	-0,025
899,1	-0,025
899,5	-0,025
900	-0,025
900,4	-0,025
900,8	-0,025
901,2	-0,025
901,7	-0,025
902,1	-0,025
902,5	-0,025
902,9	-0,025
903,4	-0,025
903,8	-0,025
904,2	-0,025
904,6	-0,025
905,1	-0,025
905,5	-0,025
905,9	-0,025
906,3	-0,025
906,8	-0,025
907,2	-0,025
907,6	-0,025
908	-0,025
908,5	-0,025
908,9	-0,025
909,3	-0,024
909,7	-0,024
910,2	-0,024
910,6	-0,025
911	-0,025
911,4	-0,025
911,9	-0,024
912,3	-0,025
912,7	-0,024
913,1	-0,024
913,6	-0,024
914	-0,025
914,4	-0,025
914,8	-0,025
915,3	-0,025
915,7	-0,026
916,1	-0,026
916,5	-0,026
916,9	-0,026
917,4	-0,026
917,8	-0,026
918,2	-0,026
918,6	-0,025
919,1	-0,025
919,5	-0,024
919,9	-0,024
920,3	-0,025
920,8	-0,025
921,2	-0,026
921,6	-0,026
922	-0,026
922,5	-0,026
922,9	-0,026
923,3	-0,026
923,7	-0,026
924,2	-0,025
924,6	-0,025
925	-0,026
925,4	-0,026
925,8	-0,026
926,3	-0,026
926,7	-0,025
927,1	-0,026
927,5	-0,026
928	-0,026
928,4	-0,025
928,8	-0,026
929,2	-0,026
929,7	-0,026
930,1	-0,026
930,5	-0,025
930,9	-0,025
931,3	-0,026
931,8	-0,026
932,2	-0,026
932,6	-0,026
933	-0,026
933,5	-0,026
933,9	-0,026
934,3	-0,025
934,7	-0,025
935,2	-0,025
935,6	-0,025
936	-0,025
936,4	-0,025
936,8	-0,025
937,3	-0,025
937,7	-0,025
938,1	-0,025
938,5	-0,026
939	-0,026
939,4	-0,026
939,8	-0,026
940,2	-0,026
940,6	-0,026
941,1	-0,026
941,5	-0,026
941,9	-0,026
942,3	-0,026
942,8	-0,026
943,2	-0,025
943,6	-0,026
944	-0,025
944,4	-0,025
944,9	-0,025
945,3	-0,025
945,7	-0,025
946,1	-0,025
946,6	-0,025
947	-0,025
947,4	-0,025
947,8	-0,026
948,2	-0,026
948,7	-0,026
949,1	-0,026
949,5	-0,026
949,9	-0,026
950,3	-0,026
950,8	-0,026
951,2	-0,025
951,6	-0,025
952	-0,026
952,5	-0,026
952,9	-0,026
953,3	-0,026
953,7	-0,025
954,1	-0,025
954,6	-0,025
955	-0,024
955,4	-0,024
955,8	-0,024
956,2	-0,024
956,7	-0,024
957,1	-0,024
957,5	-0,025
957,9	-0,025
958,3	-0,025
958,8	-0,025
959,2	-0,025
959,6	-0,025
960	-0,024
960,5	-0,024
960,9	-0,024
961,3	-0,024
961,7	-0,024
962,1	-0,024
962,6	-0,025
963	-0,025
963,4	-0,025
963,8	-0,025
964,2	-0,025
964,7	-0,025
965,1	-0,025
965,5	-0,025
965,9	-0,025
966,3	-0,025
966,8	-0,024
967,2	-0,024
967,6	-0,025
968	-0,026
968,4	-0,026
968,9	-0,026
969,3	-0,026
969,7	-0,027
970,1	-0,026
970,5	-0,025
971	-0,025
971,4	-0,025
971,8	-0,026
972,2	-0,025
972,6	-0,024
973,1	-0,025
973,5	-0,025
973,9	-0,025
974,3	-0,025
974,7	-0,025
975,2	-0,025
975,6	-0,025
976	-0,025
976,4	-0,025
976,8	-0,026
977,3	-0,026
977,7	-0,026
978,1	-0,026
978,5	-0,026
978,9	-0,026
979,4	-0,026
979,8	-0,026
980,2	-0,026
980,6	-0,026
981	-0,025
981,5	-0,025
981,9	-0,025
982,3	-0,024
982,7	-0,024
983,1	-0,024
983,6	-0,024
984	-0,025
984,4	-0,024
984,8	-0,025
985,2	-0,025
985,6	-0,025
986,1	-0,025
986,5	-0,025
986,9	-0,025
987,3	-0,025
987,7	-0,025
988,2	-0,025
988,6	-0,026
989	-0,026
989,4	-0,026
989,8	-0,026
990,3	-0,026
990,7	-0,026
991,1	-0,026
991,5	-0,025
991,9	-0,025
992,3	-0,025
992,8	-0,025
993,2	-0,025
993,6	-0,025
994	-0,025
994,4	-0,025
994,9	-0,025
995,3	-0,026
995,7	-0,026
996,1	-0,026
996,5	-0,026
996,9	-0,026
997,4	-0,026
997,8	-0,026
998,2	-0,026
998,6	-0,026
999	-0,026
999,5	-0,026
999,9	-0,026
1000,3	-0,026
1000,7	-0,026
1001,1	-0,025
1001,5	-0,026
1002	-0,025
1002,4	-0,025
1002,8	-0,025
1003,2	-0,025
1003,6	-0,025
1004	-0,026
1004,5	-0,026
1004,9	-0,027
1005,3	-0,027
1005,7	-0,026
1006,1	-0,027
1006,6	-0,026
1007	-0,026
1007,4	-0,025
1007,8	-0,025
1008,2	-0,025
1008,6	-0,026
1009,1	-0,025
1009,5	-0,025
1009,9	-0,025
1010,3	-0,025
1010,7	-0,025
1011,1	-0,025
1011,6	-0,024
1012	-0,025
1012,4	-0,025
1012,8	-0,025
1013,2	-0,025
1013,6	-0,025
1014,1	-0,025
1014,5	-0,026
1014,9	-0,026
1015,3	-0,026
1015,7	-0,026
1016,1	-0,027
1016,6	-0,027
1017	-0,026
1017,4	-0,026
1017,8	-0,025
1018,2	-0,025
1018,6	-0,025
1019,1	-0,025
1019,5	-0,025
1019,9	-0,025
1020,3	-0,025
1020,7	-0,025
1021,1	-0,024
1021,6	-0,024
1022	-0,024
1022,4	-0,025
1022,8	-0,025
1023,2	-0,025
1023,6	-0,025
1024,1	-0,025
1024,5	-0,025
1024,9	-0,025
1025,3	-0,024
1025,7	-0,024
1026,1	-0,025
1026,6	-0,025
1027	-0,025
1027,4	-0,026
1027,8	-0,025
1028,2	-0,025
1028,6	-0,025
1029	-0,025
1029,5	-0,025
1029,9	-0,024
1030,3	-0,024
1030,7	-0,024
1031,1	-0,024
1031,5	-0,024
1032	-0,024
1032,4	-0,024
1032,8	-0,024
1033,2	-0,025
1033,6	-0,025
1034	-0,026
1034,4	-0,026
1034,9	-0,026
1035,3	-0,026
1035,7	-0,026
1036,1	-0,026
1036,5	-0,026
1036,9	-0,025
1037,4	-0,025
1037,8	-0,025
1038,2	-0,026
1038,6	-0,026
1039	-0,026
1039,4	-0,026
1039,8	-0,025
1040,3	-0,025
1040,7	-0,025
1041,1	-0,024
1041,5	-0,024
1041,9	-0,024
1042,3	-0,025
1042,7	-0,025
1043,2	-0,025
1043,6	-0,025
1044	-0,025
1044,4	-0,025
1044,8	-0,026
1045,2	-0,025
1045,6	-0,025
1046,1	-0,025
1046,5	-0,026
1046,9	-0,026
1047,3	-0,027
1047,7	-0,026
1048,1	-0,027
1048,5	-0,027
1049	-0,027
1049,4	-0,027
1049,8	-0,027
1050,2	-0,026
1050,6	-0,026
1051	-0,025
1051,4	-0,025
1051,9	-0,025
1052,3	-0,026
1052,7	-0,025
1053,1	-0,025
1053,5	-0,024
1053,9	-0,025
1054,3	-0,024
1054,8	-0,024
1055,2	-0,023
1055,6	-0,024
1056	-0,024
1056,4	-0,025
1056,8	-0,026
1057,2	-0,026
1057,6	-0,026
1058,1	-0,027
1058,5	-0,027
1058,9	-0,026
1059,3	-0,025
1059,7	-0,026
1060,1	-0,026
1060,5	-0,027
1061	-0,026
1061,4	-0,026
1061,8	-0,027
1062,2	-0,027
1062,6	-0,028
1063	-0,026
1063,4	-0,025
1063,8	-0,026
1064,3	-0,027
1064,7	-0,026
1065,1	-0,026
1065,5	-0,026
1065,9	-0,027
1066,3	-0,027
1066,7	-0,027
1067,1	-0,026
1067,6	-0,026
1068	-0,025
1068,4	-0,025
1068,8	-0,025
1069,2	-0,025
1069,6	-0,024
1070	-0,024
1070,4	-0,025
1070,9	-0,026
1071,3	-0,026
1071,7	-0,026
1072,1	-0,027
1072,5	-0,027
1072,9	-0,026
1073,3	-0,026
1073,7	-0,027
1074,2	-0,026
1074,6	-0,025
1075	-0,024
1075,4	-0,024
1075,8	-0,025
1076,2	-0,025
1076,6	-0,025
1077	-0,025
1077,5	-0,026
1077,9	-0,026
1078,3	-0,026
1078,7	-0,026
1079,1	-0,026
1079,5	-0,026
1079,9	-0,028
1080,3	-0,028
1080,7	-0,027
1081,2	-0,027
1081,6	-0,028
1082	-0,028
1082,4	-0,028
1082,8	-0,026
1083,2	-0,027
1083,6	-0,028
1084	-0,029
1084,5	-0,027
1084,9	-0,028
1085,3	-0,026
1085,7	-0,027
1086,1	-0,026
1086,5	-0,025
1086,9	-0,024
1087,3	-0,026
1087,7	-0,023
1088,2	-0,024
1088,6	-0,024
1089	-0,023
1089,4	-0,025
1089,8	-0,026
1090,2	-0,026
1090,6	-0,027
1091	-0,028
1091,4	-0,028
1091,9	-0,028
1092,3	-0,027
1092,7	-0,022
1093,1	-0,023
1093,5	-0,026
1093,9	-0,028
1094,3	-0,031
1094,7	-0,031
1095,1	-0,035
1095,5	-0,038
1096	-0,037
1096,4	-0,034
1096,8	-0,031
1097,2	-0,032
1097,6	-0,034
1098	-0,036
1098,4	-0,042
1098,8	-0,043
1099,2	-0,05
1099,6	-0,05
1100,1	-0,044
1100,5	-0,043
1100,9	-0,033
1101,3	-0,035
1101,7	-0,032
1102,1	-0,039
1102,5	-0,043
1102,9	-0,045
1103,3	-0,046
1103,7	-0,048
1104,2	-0,053
1104,6	-0,058
1105	-0,056
1105,4	-0,052
1105,8	-0,056
1106,2	-0,052
1106,6	-0,068
1107	-0,062
1107,4	-0,076
1107,8	-0,034
1108,3	-0
