Data from Absorbance_001.txt Node
Date: Fri Nov 13 11:57:38 MSK 2020
User: vat
Spectrometer: MAYP114033
Trigger mode: 0
Integration Time (sec): 8,000000E-3
Scans to average: 10
Electric dark correction enabled: true
Nonlinearity correction enabled: false
Boxcar width: 3
XAxis mode: Wavelengths
Number of Pixels in Spectrum: 2068
>>>>>Begin Spectral Data<<<<<
199,4	-0,402
199,9	-0,176
200,4	-0,074
200,8	-0,023
201,3	-0,033
201,8	-0,008
202,2	0,014
202,7	0,011
203,2	0,02
203,6	0,041
204,1	0,049
204,6	0,054
205	0,049
205,5	0,027
206	0,032
206,4	0,029
206,9	0,01
207,4	-0,01
207,8	-0,006
208,3	0,003
208,8	0,021
209,2	0,034
209,7	0,04
210,2	0,037
210,6	0,059
211,1	0,059
211,5	0,056
212	0,049
212,5	0,026
212,9	0,032
213,4	0,041
213,9	0,029
214,3	0,033
214,8	0,025
215,3	0,028
215,7	0,026
216,2	0,014
216,7	0,007
217,1	-0,005
217,6	-0,006
218,1	0,008
218,5	0,003
219	0,015
219,5	0,027
219,9	0,028
220,4	0,031
220,9	0,031
221,3	0,021
221,8	0,024
222,3	0,032
222,7	0,033
223,2	0,049
223,6	0,065
224,1	0,061
224,6	0,071
225	0,077
225,5	0,068
226	0,067
226,4	0,06
226,9	0,044
227,4	0,042
227,8	0,044
228,3	0,042
228,8	0,036
229,2	0,019
229,7	0,016
230,2	0,023
230,6	0,03
231,1	0,027
231,5	0,026
232	0,035
232,5	0,04
232,9	0,04
233,4	0,04
233,9	0,039
234,3	0,037
234,8	0,044
235,3	0,045
235,7	0,054
236,2	0,052
236,7	0,057
237,1	0,049
237,6	0,041
238,1	0,033
238,5	0,035
239	0,033
239,4	0,037
239,9	0,04
240,4	0,05
240,8	0,062
241,3	0,069
241,8	0,058
242,2	0,074
242,7	0,086
243,2	0,084
243,6	0,101
244,1	0,109
244,6	0,112
245	0,131
245,5	0,13
245,9	0,129
246,4	0,143
246,9	0,133
247,3	0,136
247,8	0,143
248,3	0,153
248,7	0,16
249,2	0,16
249,7	0,167
250,1	0,178
250,6	0,181
251	0,18
251,5	0,183
252	0,183
252,4	0,184
252,9	0,185
253,4	0,188
253,8	0,189
254,3	0,193
254,8	0,199
255,2	0,204
255,7	0,211
256,1	0,216
256,6	0,222
257,1	0,228
257,5	0,235
258	0,241
258,5	0,248
258,9	0,255
259,4	0,264
259,9	0,271
260,3	0,28
260,8	0,288
261,2	0,297
261,7	0,305
262,2	0,313
262,6	0,322
263,1	0,332
263,6	0,342
264	0,352
264,5	0,361
264,9	0,372
265,4	0,383
265,9	0,394
266,3	0,405
266,8	0,416
267,3	0,428
267,7	0,438
268,2	0,449
268,7	0,459
269,1	0,469
269,6	0,479
270	0,489
270,5	0,499
271	0,51
271,4	0,52
271,9	0,531
272,4	0,542
272,8	0,552
273,3	0,562
273,7	0,571
274,2	0,581
274,7	0,59
275,1	0,597
275,6	0,606
276,1	0,614
276,5	0,621
277	0,628
277,4	0,635
277,9	0,641
278,4	0,647
278,8	0,653
279,3	0,657
279,8	0,662
280,2	0,666
280,7	0,67
281,1	0,674
281,6	0,676
282,1	0,678
282,5	0,679
283	0,68
283,4	0,679
283,9	0,678
284,4	0,677
284,8	0,674
285,3	0,672
285,8	0,668
286,2	0,663
286,7	0,659
287,1	0,653
287,6	0,647
288,1	0,64
288,5	0,633
289	0,626
289,5	0,618
289,9	0,608
290,4	0,599
290,8	0,588
291,3	0,578
291,8	0,567
292,2	0,555
292,7	0,543
293,1	0,53
293,6	0,518
294,1	0,505
294,5	0,491
295	0,477
295,5	0,463
295,9	0,449
296,4	0,435
296,8	0,421
297,3	0,407
297,8	0,392
298,2	0,378
298,7	0,363
299,1	0,349
299,6	0,334
300,1	0,32
300,5	0,306
301	0,292
301,5	0,279
301,9	0,266
302,4	0,254
302,8	0,242
303,3	0,23
303,8	0,219
304,2	0,208
304,7	0,197
305,1	0,187
305,6	0,177
306,1	0,168
306,5	0,159
307	0,15
307,4	0,141
307,9	0,133
308,4	0,125
308,8	0,117
309,3	0,11
309,8	0,103
310,2	0,097
310,7	0,091
311,1	0,086
311,6	0,081
312,1	0,076
312,5	0,071
313	0,066
313,4	0,062
313,9	0,058
314,4	0,054
314,8	0,051
315,3	0,048
315,7	0,045
316,2	0,042
316,7	0,039
317,1	0,037
317,6	0,035
318	0,033
318,5	0,031
319	0,029
319,4	0,027
319,9	0,026
320,3	0,024
320,8	0,022
321,3	0,021
321,7	0,02
322,2	0,019
322,6	0,018
323,1	0,018
323,6	0,017
324	0,016
324,5	0,015
324,9	0,014
325,4	0,013
325,9	0,013
326,3	0,013
326,8	0,012
327,2	0,012
327,7	0,011
328,2	0,011
328,6	0,01
329,1	0,01
329,5	0,01
330	0,01
330,5	0,009
330,9	0,008
331,4	0,008
331,8	0,008
332,3	0,007
332,8	0,007
333,2	0,007
333,7	0,007
334,1	0,007
334,6	0,007
335,1	0,007
335,5	0,006
336	0,006
336,4	0,006
336,9	0,005
337,4	0,005
337,8	0,005
338,3	0,005
338,7	0,005
339,2	0,005
339,7	0,005
340,1	0,005
340,6	0,005
341	0,005
341,5	0,005
342	0,004
342,4	0,004
342,9	0,004
343,3	0,004
343,8	0,004
344,2	0,004
344,7	0,004
345,2	0,004
345,6	0,004
346,1	0,004
346,5	0,004
347	0,004
347,5	0,004
347,9	0,004
348,4	0,003
348,8	0,004
349,3	0,003
349,8	0,003
350,2	0,003
350,7	0,003
351,1	0,003
351,6	0,003
352	0,002
352,5	0,002
353	0,002
353,4	0,002
353,9	0,002
354,3	0,002
354,8	0,003
355,3	0,002
355,7	0,003
356,2	0,003
356,6	0,003
357,1	0,002
357,5	0,002
358	0,002
358,5	0,002
358,9	0,002
359,4	0,002
359,8	0,002
360,3	0,001
360,8	0,001
361,2	0
361,7	0
362,1	0
362,6	0
363	0
363,5	0
364	0
364,4	0
364,9	-0
365,3	0
365,8	-0
366,3	-0,001
366,7	-0,001
367,2	-0,001
367,6	-0,001
368,1	-0
368,5	-0
369	-0
369,5	0
369,9	0
370,4	0,001
370,8	0
371,3	0,001
371,7	0,001
372,2	0,001
372,7	0,001
373,1	0
373,6	0
374	0
374,5	-0,001
374,9	-0,001
375,4	-0,001
375,9	-0,002
376,3	-0,002
376,8	-0,002
377,2	-0,002
377,7	-0,002
378,2	-0,002
378,6	-0,002
379,1	-0,002
379,5	-0,002
380	-0,002
380,4	-0,003
380,9	-0,003
381,4	-0,003
381,8	-0,004
382,3	-0,003
382,7	-0,003
383,2	-0,003
383,6	-0,003
384,1	-0,003
384,6	-0,003
385	-0,002
385,5	-0,002
385,9	-0,002
386,4	-0,003
386,8	-0,003
387,3	-0,003
387,7	-0,004
388,2	-0,004
388,7	-0,004
389,1	-0,004
389,6	-0,004
390	-0,004
390,5	-0,004
390,9	-0,004
391,4	-0,004
391,9	-0,003
392,3	-0,003
392,8	-0,003
393,2	-0,003
393,7	-0,003
394,1	-0,002
394,6	-0,003
395,1	-0,003
395,5	-0,003
396	-0,004
396,4	-0,004
396,9	-0,004
397,3	-0,005
397,8	-0,005
398,2	-0,005
398,7	-0,005
399,2	-0,005
399,6	-0,005
400,1	-0,005
400,5	-0,005
401	-0,005
401,4	-0,005
401,9	-0,004
402,4	-0,004
402,8	-0,004
403,3	-0,004
403,7	-0,005
404,2	-0,004
404,6	-0,005
405,1	-0,005
405,5	-0,005
406	-0,005
406,5	-0,005
406,9	-0,005
407,4	-0,005
407,8	-0,005
408,3	-0,005
408,7	-0,006
409,2	-0,005
409,6	-0,005
410,1	-0,005
410,6	-0,005
411	-0,005
411,5	-0,005
411,9	-0,005
412,4	-0,005
412,8	-0,005
413,3	-0,005
413,7	-0,005
414,2	-0,005
414,7	-0,005
415,1	-0,006
415,6	-0,006
416	-0,006
416,5	-0,006
416,9	-0,006
417,4	-0,005
417,8	-0,005
418,3	-0,005
418,8	-0,005
419,2	-0,006
419,7	-0,006
420,1	-0,006
420,6	-0,006
421	-0,006
421,5	-0,006
421,9	-0,006
422,4	-0,006
422,8	-0,006
423,3	-0,006
423,8	-0,006
424,2	-0,006
424,7	-0,007
425,1	-0,006
425,6	-0,006
426	-0,006
426,5	-0,006
426,9	-0,006
427,4	-0,006
427,9	-0,006
428,3	-0,006
428,8	-0,006
429,2	-0,006
429,7	-0,006
430,1	-0,006
430,6	-0,006
431	-0,007
431,5	-0,007
431,9	-0,007
432,4	-0,007
432,8	-0,007
433,3	-0,007
433,8	-0,007
434,2	-0,006
434,7	-0,007
435,1	-0,007
435,6	-0,007
436	-0,007
436,5	-0,006
436,9	-0,006
437,4	-0,006
437,8	-0,007
438,3	-0,007
438,8	-0,007
439,2	-0,007
439,7	-0,008
440,1	-0,008
440,6	-0,008
441	-0,008
441,5	-0,007
441,9	-0,008
442,4	-0,008
442,8	-0,008
443,3	-0,008
443,7	-0,007
444,2	-0,007
444,7	-0,007
445,1	-0,007
445,6	-0,007
446	-0,007
446,5	-0,007
446,9	-0,008
447,4	-0,008
447,8	-0,007
448,3	-0,008
448,7	-0,008
449,2	-0,008
449,6	-0,008
450,1	-0,008
450,6	-0,008
451	-0,009
451,5	-0,009
451,9	-0,009
452,4	-0,008
452,8	-0,009
453,3	-0,008
453,7	-0,008
454,2	-0,008
454,6	-0,008
455,1	-0,008
455,5	-0,009
456	-0,009
456,4	-0,008
456,9	-0,009
457,3	-0,009
457,8	-0,008
458,3	-0,008
458,7	-0,008
459,2	-0,008
459,6	-0,008
460,1	-0,008
460,5	-0,008
461	-0,009
461,4	-0,009
461,9	-0,009
462,3	-0,009
462,8	-0,008
463,2	-0,008
463,7	-0,009
464,1	-0,008
464,6	-0,008
465	-0,009
465,5	-0,009
466	-0,009
466,4	-0,01
466,9	-0,01
467,3	-0,01
467,8	-0,01
468,2	-0,009
468,7	-0,01
469,1	-0,01
469,6	-0,009
470	-0,009
470,5	-0,009
470,9	-0,008
471,4	-0,008
471,8	-0,008
472,3	-0,008
472,7	-0,008
473,2	-0,009
473,6	-0,009
474,1	-0,009
474,5	-0,009
475	-0,009
475,4	-0,009
475,9	-0,009
476,4	-0,009
476,8	-0,009
477,3	-0,009
477,7	-0,009
478,2	-0,009
478,6	-0,01
479,1	-0,009
479,5	-0,009
480	-0,009
480,4	-0,01
480,9	-0,01
481,3	-0,01
481,8	-0,009
482,2	-0,01
482,7	-0,009
483,1	-0,009
483,6	-0,01
484	-0,01
484,5	-0,01
484,9	-0,01
485,4	-0,01
485,8	-0,01
486,3	-0,01
486,7	-0,01
487,2	-0,01
487,6	-0,01
488,1	-0,01
488,5	-0,01
489	-0,01
489,4	-0,01
489,9	-0,01
490,4	-0,01
490,8	-0,01
491,3	-0,01
491,7	-0,01
492,2	-0,01
492,6	-0,01
493,1	-0,011
493,5	-0,011
494	-0,011
494,4	-0,011
494,9	-0,011
495,3	-0,011
495,8	-0,011
496,2	-0,011
496,7	-0,011
497,1	-0,011
497,6	-0,011
498	-0,01
498,5	-0,01
498,9	-0,01
499,4	-0,011
499,8	-0,01
500,3	-0,01
500,7	-0,01
501,2	-0,01
501,6	-0,01
502,1	-0,01
502,5	-0,01
503	-0,01
503,4	-0,01
503,9	-0,01
504,3	-0,01
504,8	-0,01
505,2	-0,01
505,7	-0,01
506,1	-0,01
506,6	-0,011
507	-0,01
507,5	-0,011
507,9	-0,011
508,4	-0,011
508,8	-0,011
509,3	-0,012
509,7	-0,011
510,2	-0,011
510,6	-0,011
511,1	-0,011
511,5	-0,011
512	-0,011
512,4	-0,01
512,9	-0,01
513,3	-0,01
513,8	-0,011
514,2	-0,011
514,7	-0,011
515,1	-0,011
515,6	-0,011
516	-0,012
516,5	-0,012
516,9	-0,012
517,4	-0,011
517,8	-0,012
518,3	-0,012
518,7	-0,012
519,2	-0,012
519,6	-0,011
520,1	-0,011
520,5	-0,011
521	-0,011
521,4	-0,011
521,9	-0,011
522,3	-0,011
522,8	-0,011
523,2	-0,011
523,7	-0,011
524,1	-0,011
524,6	-0,011
525	-0,01
525,5	-0,011
525,9	-0,011
526,4	-0,011
526,8	-0,011
527,3	-0,01
527,7	-0,011
528,2	-0,011
528,6	-0,011
529,1	-0,011
529,5	-0,011
530	-0,012
530,4	-0,012
530,9	-0,012
531,3	-0,012
531,8	-0,012
532,2	-0,012
532,6	-0,012
533,1	-0,011
533,5	-0,011
534	-0,011
534,4	-0,012
534,9	-0,012
535,3	-0,012
535,8	-0,012
536,2	-0,013
536,7	-0,012
537,1	-0,012
537,6	-0,012
538	-0,013
538,5	-0,012
538,9	-0,012
539,4	-0,012
539,8	-0,013
540,3	-0,013
540,7	-0,013
541,2	-0,013
541,6	-0,013
542,1	-0,013
542,5	-0,013
543	-0,012
543,4	-0,012
543,9	-0,012
544,3	-0,012
544,8	-0,012
545,2	-0,011
545,7	-0,011
546,1	-0,011
546,5	-0,011
547	-0,011
547,4	-0,011
547,9	-0,011
548,3	-0,012
548,8	-0,012
549,2	-0,012
549,7	-0,013
550,1	-0,012
550,6	-0,013
551	-0,013
551,5	-0,013
551,9	-0,012
552,4	-0,012
552,8	-0,011
553,3	-0,012
553,7	-0,011
554,2	-0,012
554,6	-0,012
555,1	-0,012
555,5	-0,012
555,9	-0,012
556,4	-0,012
556,8	-0,012
557,3	-0,012
557,7	-0,012
558,2	-0,012
558,6	-0,012
559,1	-0,013
559,5	-0,013
560	-0,013
560,4	-0,013
560,9	-0,013
561,3	-0,013
561,8	-0,013
562,2	-0,013
562,7	-0,013
563,1	-0,013
563,6	-0,013
564	-0,013
564,4	-0,013
564,9	-0,013
565,3	-0,013
565,8	-0,013
566,2	-0,013
566,7	-0,012
567,1	-0,012
567,6	-0,012
568	-0,012
568,5	-0,012
568,9	-0,013
569,4	-0,013
569,8	-0,013
570,3	-0,013
570,7	-0,013
571,1	-0,013
571,6	-0,013
572	-0,012
572,5	-0,013
572,9	-0,013
573,4	-0,013
573,8	-0,013
574,3	-0,013
574,7	-0,013
575,2	-0,013
575,6	-0,013
576,1	-0,013
576,5	-0,013
576,9	-0,013
577,4	-0,013
577,8	-0,013
578,3	-0,013
578,7	-0,013
579,2	-0,013
579,6	-0,013
580,1	-0,013
580,5	-0,013
581	-0,013
581,4	-0,013
581,9	-0,013
582,3	-0,013
582,7	-0,013
583,2	-0,013
583,6	-0,013
584,1	-0,013
584,5	-0,013
585	-0,013
585,4	-0,013
585,9	-0,013
586,3	-0,013
586,8	-0,013
587,2	-0,013
587,6	-0,013
588,1	-0,012
588,5	-0,012
589	-0,013
589,4	-0,013
589,9	-0,013
590,3	-0,013
590,8	-0,013
591,2	-0,013
591,7	-0,013
592,1	-0,013
592,5	-0,013
593	-0,013
593,4	-0,013
593,9	-0,013
594,3	-0,013
594,8	-0,013
595,2	-0,013
595,7	-0,013
596,1	-0,013
596,6	-0,013
597	-0,013
597,4	-0,013
597,9	-0,013
598,3	-0,013
598,8	-0,013
599,2	-0,013
599,7	-0,013
600,1	-0,013
600,6	-0,013
601	-0,013
601,4	-0,013
601,9	-0,013
602,3	-0,013
602,8	-0,013
603,2	-0,013
603,7	-0,013
604,1	-0,013
604,6	-0,013
605	-0,013
605,4	-0,013
605,9	-0,013
606,3	-0,013
606,8	-0,014
607,2	-0,014
607,7	-0,014
608,1	-0,014
608,6	-0,014
609	-0,014
609,4	-0,013
609,9	-0,013
610,3	-0,013
610,8	-0,013
611,2	-0,013
611,7	-0,013
612,1	-0,013
612,6	-0,014
613	-0,014
613,4	-0,014
613,9	-0,014
614,3	-0,014
614,8	-0,014
615,2	-0,014
615,7	-0,014
616,1	-0,013
616,6	-0,013
617	-0,013
617,4	-0,013
617,9	-0,013
618,3	-0,013
618,8	-0,013
619,2	-0,014
619,7	-0,014
620,1	-0,014
620,5	-0,014
621	-0,014
621,4	-0,014
621,9	-0,014
622,3	-0,014
622,8	-0,014
623,2	-0,014
623,6	-0,014
624,1	-0,014
624,5	-0,014
625	-0,014
625,4	-0,014
625,9	-0,014
626,3	-0,014
626,8	-0,014
627,2	-0,013
627,6	-0,013
628,1	-0,013
628,5	-0,013
629	-0,013
629,4	-0,013
629,9	-0,014
630,3	-0,014
630,7	-0,014
631,2	-0,014
631,6	-0,014
632,1	-0,014
632,5	-0,014
633	-0,014
633,4	-0,014
633,8	-0,014
634,3	-0,014
634,7	-0,014
635,2	-0,014
635,6	-0,014
636,1	-0,014
636,5	-0,014
636,9	-0,014
637,4	-0,014
637,8	-0,015
638,3	-0,015
638,7	-0,015
639,2	-0,015
639,6	-0,015
640	-0,015
640,5	-0,014
640,9	-0,015
641,4	-0,015
641,8	-0,015
642,2	-0,015
642,7	-0,015
643,1	-0,015
643,6	-0,015
644	-0,015
644,5	-0,015
644,9	-0,014
645,3	-0,014
645,8	-0,014
646,2	-0,014
646,7	-0,014
647,1	-0,014
647,6	-0,014
648	-0,014
648,4	-0,014
648,9	-0,014
649,3	-0,015
649,8	-0,015
650,2	-0,015
650,6	-0,015
651,1	-0,015
651,5	-0,015
652	-0,015
652,4	-0,015
652,9	-0,015
653,3	-0,014
653,7	-0,014
654,2	-0,009
654,6	-0,006
655,1	-0,005
655,5	-0,006
655,9	-0,006
656,4	-0,006
656,8	-0,005
657,3	-0,006
657,7	-0,009
658,2	-0,014
658,6	-0,014
659	-0,014
659,5	-0,014
659,9	-0,013
660,4	-0,014
660,8	-0,014
661,2	-0,014
661,7	-0,014
662,1	-0,014
662,6	-0,014
663	-0,014
663,4	-0,014
663,9	-0,014
664,3	-0,014
664,8	-0,015
665,2	-0,015
665,6	-0,015
666,1	-0,014
666,5	-0,014
667	-0,014
667,4	-0,014
667,9	-0,014
668,3	-0,014
668,7	-0,013
669,2	-0,014
669,6	-0,014
670,1	-0,014
670,5	-0,014
670,9	-0,014
671,4	-0,014
671,8	-0,015
672,3	-0,015
672,7	-0,015
673,1	-0,015
673,6	-0,015
674	-0,015
674,5	-0,014
674,9	-0,014
675,3	-0,014
675,8	-0,014
676,2	-0,014
676,7	-0,014
677,1	-0,015
677,5	-0,015
678	-0,015
678,4	-0,015
678,9	-0,015
679,3	-0,015
679,7	-0,015
680,2	-0,015
680,6	-0,014
681,1	-0,014
681,5	-0,014
681,9	-0,015
682,4	-0,014
682,8	-0,014
683,3	-0,015
683,7	-0,015
684,1	-0,015
684,6	-0,015
685	-0,015
685,5	-0,015
685,9	-0,014
686,3	-0,014
686,8	-0,014
687,2	-0,014
687,7	-0,014
688,1	-0,014
688,5	-0,015
689	-0,015
689,4	-0,015
689,9	-0,015
690,3	-0,014
690,7	-0,014
691,2	-0,014
691,6	-0,014
692	-0,014
692,5	-0,014
692,9	-0,014
693,4	-0,014
693,8	-0,014
694,2	-0,014
694,7	-0,014
695,1	-0,014
695,6	-0,014
696	-0,014
696,4	-0,014
696,9	-0,014
697,3	-0,014
697,8	-0,014
698,2	-0,014
698,6	-0,014
699,1	-0,015
699,5	-0,014
699,9	-0,014
700,4	-0,014
700,8	-0,015
701,3	-0,014
701,7	-0,014
702,1	-0,014
702,6	-0,015
703	-0,015
703,5	-0,015
703,9	-0,015
704,3	-0,014
704,8	-0,014
705,2	-0,014
705,6	-0,014
706,1	-0,014
706,5	-0,014
707	-0,014
707,4	-0,015
707,8	-0,015
708,3	-0,015
708,7	-0,016
709,2	-0,015
709,6	-0,015
710	-0,015
710,5	-0,015
710,9	-0,015
711,3	-0,015
711,8	-0,015
712,2	-0,015
712,7	-0,015
713,1	-0,015
713,5	-0,016
714	-0,016
714,4	-0,016
714,8	-0,015
715,3	-0,015
715,7	-0,015
716,2	-0,014
716,6	-0,014
717	-0,014
717,5	-0,014
717,9	-0,014
718,3	-0,014
718,8	-0,014
719,2	-0,015
719,7	-0,015
720,1	-0,014
720,5	-0,014
721	-0,014
721,4	-0,014
721,8	-0,014
722,3	-0,014
722,7	-0,014
723,2	-0,014
723,6	-0,014
724	-0,014
724,5	-0,014
724,9	-0,014
725,3	-0,014
725,8	-0,014
726,2	-0,014
726,7	-0,014
727,1	-0,015
727,5	-0,015
728	-0,015
728,4	-0,015
728,8	-0,015
729,3	-0,015
729,7	-0,015
730,1	-0,015
730,6	-0,015
731	-0,015
731,5	-0,015
731,9	-0,015
732,3	-0,015
732,8	-0,015
733,2	-0,015
733,6	-0,015
734,1	-0,015
734,5	-0,015
734,9	-0,015
735,4	-0,014
735,8	-0,014
736,3	-0,015
736,7	-0,015
737,1	-0,014
737,6	-0,014
738	-0,014
738,4	-0,014
738,9	-0,014
739,3	-0,014
739,7	-0,014
740,2	-0,014
740,6	-0,014
741,1	-0,014
741,5	-0,014
741,9	-0,014
742,4	-0,014
742,8	-0,014
743,2	-0,014
743,7	-0,014
744,1	-0,015
744,5	-0,015
745	-0,015
745,4	-0,015
745,8	-0,015
746,3	-0,014
746,7	-0,014
747,2	-0,014
747,6	-0,014
748	-0,015
748,5	-0,015
748,9	-0,015
749,3	-0,015
749,8	-0,015
750,2	-0,015
750,6	-0,015
751,1	-0,015
751,5	-0,015
751,9	-0,015
752,4	-0,015
752,8	-0,015
753,3	-0,015
753,7	-0,015
754,1	-0,015
754,6	-0,015
755	-0,015
755,4	-0,016
755,9	-0,015
756,3	-0,015
756,7	-0,015
757,2	-0,015
757,6	-0,015
758	-0,015
758,5	-0,014
758,9	-0,015
759,3	-0,015
759,8	-0,014
760,2	-0,015
760,6	-0,015
761,1	-0,015
761,5	-0,015
761,9	-0,015
762,4	-0,015
762,8	-0,015
763,3	-0,015
763,7	-0,015
764,1	-0,015
764,6	-0,015
765	-0,015
765,4	-0,014
765,9	-0,014
766,3	-0,014
766,7	-0,014
767,2	-0,014
767,6	-0,014
768	-0,014
768,5	-0,014
768,9	-0,014
769,3	-0,014
769,8	-0,014
770,2	-0,014
770,6	-0,014
771,1	-0,014
771,5	-0,014
771,9	-0,014
772,4	-0,013
772,8	-0,014
773,2	-0,014
773,7	-0,013
774,1	-0,014
774,5	-0,014
775	-0,014
775,4	-0,014
775,8	-0,014
776,3	-0,015
776,7	-0,015
777,1	-0,015
777,6	-0,014
778	-0,014
778,4	-0,014
778,9	-0,014
779,3	-0,014
779,7	-0,015
780,2	-0,015
780,6	-0,015
781	-0,014
781,5	-0,014
781,9	-0,014
782,3	-0,014
782,8	-0,014
783,2	-0,014
783,6	-0,014
784,1	-0,015
784,5	-0,015
784,9	-0,015
785,4	-0,015
785,8	-0,015
786,2	-0,015
786,7	-0,015
787,1	-0,015
787,5	-0,015
788	-0,015
788,4	-0,015
788,8	-0,014
789,3	-0,015
789,7	-0,015
790,1	-0,015
790,6	-0,015
791	-0,015
791,4	-0,016
791,9	-0,015
792,3	-0,015
792,7	-0,015
793,2	-0,015
793,6	-0,015
794	-0,015
794,5	-0,015
794,9	-0,015
795,3	-0,015
795,8	-0,015
796,2	-0,015
796,6	-0,015
797,1	-0,015
797,5	-0,015
797,9	-0,015
798,4	-0,015
798,8	-0,015
799,2	-0,015
799,7	-0,015
800,1	-0,014
800,5	-0,014
801	-0,014
801,4	-0,014
801,8	-0,014
802,2	-0,014
802,7	-0,014
803,1	-0,014
803,5	-0,014
804	-0,014
804,4	-0,014
804,8	-0,014
805,3	-0,014
805,7	-0,014
806,1	-0,014
806,6	-0,014
807	-0,015
807,4	-0,014
807,9	-0,014
808,3	-0,015
808,7	-0,015
809,2	-0,015
809,6	-0,015
810	-0,015
810,4	-0,015
810,9	-0,015
811,3	-0,014
811,7	-0,014
812,2	-0,014
812,6	-0,014
813	-0,014
813,5	-0,014
813,9	-0,014
814,3	-0,014
814,8	-0,014
815,2	-0,014
815,6	-0,014
816,1	-0,014
816,5	-0,014
816,9	-0,014
817,3	-0,015
817,8	-0,015
818,2	-0,015
818,6	-0,016
819,1	-0,016
819,5	-0,015
819,9	-0,015
820,4	-0,015
820,8	-0,015
821,2	-0,014
821,7	-0,014
822,1	-0,015
822,5	-0,014
822,9	-0,015
823,4	-0,015
823,8	-0,015
824,2	-0,015
824,7	-0,015
825,1	-0,015
825,5	-0,016
826	-0,016
826,4	-0,015
826,8	-0,016
827,3	-0,016
827,7	-0,016
828,1	-0,015
828,5	-0,015
829	-0,015
829,4	-0,015
829,8	-0,014
830,3	-0,014
830,7	-0,014
831,1	-0,015
831,6	-0,015
832	-0,015
832,4	-0,015
832,8	-0,015
833,3	-0,015
833,7	-0,016
834,1	-0,016
834,6	-0,016
835	-0,016
835,4	-0,016
835,8	-0,016
836,3	-0,016
836,7	-0,016
837,1	-0,016
837,6	-0,015
838	-0,015
838,4	-0,015
838,9	-0,015
839,3	-0,015
839,7	-0,015
840,1	-0,015
840,6	-0,015
841	-0,015
841,4	-0,015
841,9	-0,016
842,3	-0,016
842,7	-0,016
843,1	-0,016
843,6	-0,015
844	-0,015
844,4	-0,015
844,9	-0,015
845,3	-0,015
845,7	-0,015
846,2	-0,015
846,6	-0,015
847	-0,015
847,4	-0,014
847,9	-0,014
848,3	-0,014
848,7	-0,014
849,2	-0,014
849,6	-0,015
850	-0,015
850,4	-0,015
850,9	-0,015
851,3	-0,015
851,7	-0,014
852,2	-0,014
852,6	-0,014
853	-0,014
853,4	-0,014
853,9	-0,014
854,3	-0,014
854,7	-0,014
855,2	-0,014
855,6	-0,015
856	-0,015
856,4	-0,015
856,9	-0,014
857,3	-0,015
857,7	-0,015
858,2	-0,015
858,6	-0,015
859	-0,015
859,4	-0,015
859,9	-0,015
860,3	-0,015
860,7	-0,015
861,1	-0,015
861,6	-0,015
862	-0,014
862,4	-0,014
862,9	-0,014
863,3	-0,015
863,7	-0,015
864,1	-0,015
864,6	-0,015
865	-0,015
865,4	-0,015
865,9	-0,015
866,3	-0,015
866,7	-0,015
867,1	-0,015
867,6	-0,015
868	-0,016
868,4	-0,016
868,8	-0,015
869,3	-0,015
869,7	-0,015
870,1	-0,015
870,6	-0,015
871	-0,015
871,4	-0,015
871,8	-0,015
872,3	-0,015
872,7	-0,015
873,1	-0,015
873,5	-0,016
874	-0,016
874,4	-0,016
874,8	-0,016
875,3	-0,016
875,7	-0,016
876,1	-0,016
876,5	-0,016
877	-0,016
877,4	-0,016
877,8	-0,016
878,2	-0,016
878,7	-0,016
879,1	-0,016
879,5	-0,016
879,9	-0,016
880,4	-0,016
880,8	-0,016
881,2	-0,016
881,7	-0,016
882,1	-0,016
882,5	-0,016
882,9	-0,016
883,4	-0,016
883,8	-0,016
884,2	-0,016
884,6	-0,015
885,1	-0,015
885,5	-0,015
885,9	-0,014
886,3	-0,014
886,8	-0,014
887,2	-0,015
887,6	-0,015
888	-0,015
888,5	-0,015
888,9	-0,015
889,3	-0,015
889,8	-0,015
890,2	-0,014
890,6	-0,014
891	-0,014
891,5	-0,015
891,9	-0,014
892,3	-0,015
892,7	-0,015
893,2	-0,015
893,6	-0,015
894	-0,015
894,4	-0,015
894,9	-0,015
895,3	-0,015
895,7	-0,015
896,1	-0,015
896,6	-0,015
897	-0,015
897,4	-0,015
897,8	-0,015
898,3	-0,015
898,7	-0,015
899,1	-0,015
899,5	-0,015
900	-0,015
900,4	-0,015
900,8	-0,015
901,2	-0,015
901,7	-0,015
902,1	-0,015
902,5	-0,015
902,9	-0,015
903,4	-0,015
903,8	-0,015
904,2	-0,015
904,6	-0,014
905,1	-0,014
905,5	-0,015
905,9	-0,015
906,3	-0,015
906,8	-0,015
907,2	-0,016
907,6	-0,015
908	-0,015
908,5	-0,015
908,9	-0,015
909,3	-0,014
909,7	-0,014
910,2	-0,014
910,6	-0,015
911	-0,015
911,4	-0,015
911,9	-0,014
912,3	-0,015
912,7	-0,015
913,1	-0,015
913,6	-0,015
914	-0,016
914,4	-0,015
914,8	-0,015
915,3	-0,015
915,7	-0,015
916,1	-0,015
916,5	-0,016
916,9	-0,016
917,4	-0,016
917,8	-0,016
918,2	-0,016
918,6	-0,016
919,1	-0,015
919,5	-0,015
919,9	-0,014
920,3	-0,014
920,8	-0,014
921,2	-0,015
921,6	-0,015
922	-0,015
922,5	-0,016
922,9	-0,016
923,3	-0,017
923,7	-0,017
924,2	-0,016
924,6	-0,016
925	-0,017
925,4	-0,016
925,8	-0,016
926,3	-0,016
926,7	-0,016
927,1	-0,016
927,5	-0,016
928	-0,016
928,4	-0,015
928,8	-0,015
929,2	-0,015
929,7	-0,014
930,1	-0,014
930,5	-0,014
930,9	-0,014
931,3	-0,014
931,8	-0,014
932,2	-0,014
932,6	-0,015
933	-0,015
933,5	-0,016
933,9	-0,016
934,3	-0,016
934,7	-0,015
935,2	-0,015
935,6	-0,015
936	-0,015
936,4	-0,015
936,8	-0,015
937,3	-0,015
937,7	-0,015
938,1	-0,016
938,5	-0,016
939	-0,016
939,4	-0,016
939,8	-0,016
940,2	-0,016
940,6	-0,016
941,1	-0,016
941,5	-0,016
941,9	-0,016
942,3	-0,016
942,8	-0,016
943,2	-0,015
943,6	-0,015
944	-0,015
944,4	-0,015
944,9	-0,015
945,3	-0,015
945,7	-0,014
946,1	-0,014
946,6	-0,015
947	-0,014
947,4	-0,014
947,8	-0,014
948,2	-0,015
948,7	-0,015
949,1	-0,016
949,5	-0,015
949,9	-0,016
950,3	-0,016
950,8	-0,015
951,2	-0,015
951,6	-0,015
952	-0,015
952,5	-0,015
952,9	-0,015
953,3	-0,015
953,7	-0,015
954,1	-0,015
954,6	-0,015
955	-0,015
955,4	-0,015
955,8	-0,015
956,2	-0,015
956,7	-0,015
957,1	-0,016
957,5	-0,015
957,9	-0,015
958,3	-0,015
958,8	-0,015
959,2	-0,015
959,6	-0,015
960	-0,015
960,5	-0,014
960,9	-0,014
961,3	-0,014
961,7	-0,014
962,1	-0,014
962,6	-0,015
963	-0,015
963,4	-0,015
963,8	-0,015
964,2	-0,015
964,7	-0,015
965,1	-0,016
965,5	-0,015
965,9	-0,015
966,3	-0,015
966,8	-0,015
967,2	-0,015
967,6	-0,016
968	-0,016
968,4	-0,016
968,9	-0,016
969,3	-0,016
969,7	-0,016
970,1	-0,016
970,5	-0,015
971	-0,014
971,4	-0,014
971,8	-0,015
972,2	-0,015
972,6	-0,015
973,1	-0,015
973,5	-0,015
973,9	-0,015
974,3	-0,015
974,7	-0,015
975,2	-0,015
975,6	-0,015
976	-0,015
976,4	-0,015
976,8	-0,015
977,3	-0,015
977,7	-0,015
978,1	-0,015
978,5	-0,015
978,9	-0,015
979,4	-0,016
979,8	-0,015
980,2	-0,015
980,6	-0,015
981	-0,016
981,5	-0,015
981,9	-0,014
982,3	-0,014
982,7	-0,015
983,1	-0,015
983,6	-0,015
984	-0,014
984,4	-0,015
984,8	-0,015
985,2	-0,015
985,6	-0,015
986,1	-0,015
986,5	-0,015
986,9	-0,015
987,3	-0,015
987,7	-0,015
988,2	-0,015
988,6	-0,015
989	-0,015
989,4	-0,015
989,8	-0,015
990,3	-0,016
990,7	-0,016
991,1	-0,016
991,5	-0,016
991,9	-0,017
992,3	-0,016
992,8	-0,016
993,2	-0,015
993,6	-0,015
994	-0,015
994,4	-0,015
994,9	-0,015
995,3	-0,015
995,7	-0,015
996,1	-0,015
996,5	-0,015
996,9	-0,015
997,4	-0,015
997,8	-0,015
998,2	-0,016
998,6	-0,015
999	-0,016
999,5	-0,016
999,9	-0,016
1000,3	-0,016
1000,7	-0,015
1001,1	-0,015
1001,5	-0,015
1002	-0,015
1002,4	-0,015
1002,8	-0,015
1003,2	-0,016
1003,6	-0,016
1004	-0,016
1004,5	-0,016
1004,9	-0,016
1005,3	-0,016
1005,7	-0,016
1006,1	-0,016
1006,6	-0,016
1007	-0,016
1007,4	-0,016
1007,8	-0,017
1008,2	-0,017
1008,6	-0,016
1009,1	-0,016
1009,5	-0,015
1009,9	-0,015
1010,3	-0,015
1010,7	-0,015
1011,1	-0,015
1011,6	-0,014
1012	-0,015
1012,4	-0,015
1012,8	-0,016
1013,2	-0,015
1013,6	-0,015
1014,1	-0,015
1014,5	-0,016
1014,9	-0,016
1015,3	-0,016
1015,7	-0,016
1016,1	-0,016
1016,6	-0,017
1017	-0,017
1017,4	-0,016
1017,8	-0,015
1018,2	-0,015
1018,6	-0,016
1019,1	-0,015
1019,5	-0,015
1019,9	-0,016
1020,3	-0,015
1020,7	-0,016
1021,1	-0,016
1021,6	-0,016
1022	-0,016
1022,4	-0,015
1022,8	-0,015
1023,2	-0,015
1023,6	-0,015
1024,1	-0,015
1024,5	-0,015
1024,9	-0,016
1025,3	-0,015
1025,7	-0,015
1026,1	-0,016
1026,6	-0,016
1027	-0,015
1027,4	-0,015
1027,8	-0,015
1028,2	-0,015
1028,6	-0,015
1029	-0,015
1029,5	-0,014
1029,9	-0,014
1030,3	-0,014
1030,7	-0,014
1031,1	-0,014
1031,5	-0,015
1032	-0,015
1032,4	-0,015
1032,8	-0,015
1033,2	-0,015
1033,6	-0,015
1034	-0,015
1034,4	-0,015
1034,9	-0,015
1035,3	-0,015
1035,7	-0,015
1036,1	-0,015
1036,5	-0,016
1036,9	-0,016
1037,4	-0,015
1037,8	-0,015
1038,2	-0,015
1038,6	-0,015
1039	-0,015
1039,4	-0,014
1039,8	-0,014
1040,3	-0,015
1040,7	-0,015
1041,1	-0,015
1041,5	-0,015
1041,9	-0,015
1042,3	-0,016
1042,7	-0,016
1043,2	-0,015
1043,6	-0,015
1044	-0,015
1044,4	-0,015
1044,8	-0,015
1045,2	-0,015
1045,6	-0,015
1046,1	-0,015
1046,5	-0,015
1046,9	-0,016
1047,3	-0,017
1047,7	-0,017
1048,1	-0,017
1048,5	-0,017
1049	-0,017
1049,4	-0,017
1049,8	-0,016
1050,2	-0,015
1050,6	-0,015
1051	-0,014
1051,4	-0,013
1051,9	-0,013
1052,3	-0,012
1052,7	-0,013
1053,1	-0,012
1053,5	-0,013
1053,9	-0,013
1054,3	-0,013
1054,8	-0,013
1055,2	-0,013
1055,6	-0,014
1056	-0,014
1056,4	-0,013
1056,8	-0,014
1057,2	-0,015
1057,6	-0,015
1058,1	-0,015
1058,5	-0,015
1058,9	-0,015
1059,3	-0,016
1059,7	-0,016
1060,1	-0,017
1060,5	-0,018
1061	-0,017
1061,4	-0,016
1061,8	-0,015
1062,2	-0,016
1062,6	-0,015
1063	-0,015
1063,4	-0,014
1063,8	-0,015
1064,3	-0,015
1064,7	-0,015
1065,1	-0,015
1065,5	-0,015
1065,9	-0,016
1066,3	-0,016
1066,7	-0,016
1067,1	-0,015
1067,6	-0,015
1068	-0,015
1068,4	-0,015
1068,8	-0,014
1069,2	-0,014
1069,6	-0,014
1070	-0,014
1070,4	-0,016
1070,9	-0,016
1071,3	-0,015
1071,7	-0,016
1072,1	-0,016
1072,5	-0,016
1072,9	-0,016
1073,3	-0,016
1073,7	-0,016
1074,2	-0,017
1074,6	-0,016
1075	-0,017
1075,4	-0,015
1075,8	-0,016
1076,2	-0,016
1076,6	-0,015
1077	-0,014
1077,5	-0,015
1077,9	-0,016
1078,3	-0,016
1078,7	-0,015
1079,1	-0,015
1079,5	-0,015
1079,9	-0,017
1080,3	-0,017
1080,7	-0,016
1081,2	-0,018
1081,6	-0,019
1082	-0,019
1082,4	-0,02
1082,8	-0,017
1083,2	-0,017
1083,6	-0,017
1084	-0,018
1084,5	-0,017
1084,9	-0,016
1085,3	-0,016
1085,7	-0,018
1086,1	-0,016
1086,5	-0,015
1086,9	-0,015
1087,3	-0,014
1087,7	-0,015
1088,2	-0,016
1088,6	-0,016
1089	-0,015
1089,4	-0,016
1089,8	-0,016
1090,2	-0,016
1090,6	-0,013
1091	-0,013
1091,4	-0,015
1091,9	-0,018
1092,3	-0,017
1092,7	-0,015
1093,1	-0,019
1093,5	-0,022
1093,9	-0,019
1094,3	-0,019
1094,7	-0,017
1095,1	-0,015
1095,5	-0,013
1096	-0,007
1096,4	-0,006
1096,8	-0,008
1097,2	-0,008
1097,6	-0,005
1098	-0,012
1098,4	-0,015
1098,8	-0,015
1099,2	-0,014
1099,6	-0,012
1100,1	-0,016
1100,5	-0,015
1100,9	-0,008
1101,3	-0,014
1101,7	-0,014
1102,1	-0,02
1102,5	-0,022
1102,9	-0,024
1103,3	-0,03
1103,7	-0,033
1104,2	-0,038
1104,6	-0,037
1105	-0,026
1105,4	-0,031
1105,8	-0,025
1106,2	-0,022
1106,6	-0,025
1107	-0,004
1107,4	-0,012
1107,8	-0,045
1108,3	0,252
